Wavelength (nm),Sum(calc),Al I (4.9e-2),Al II (9.5e-1),Al III (7.0e-4)
201.463,4.672e-15,,4.672e-15,
201.468,1.446e-13,,1.446e-13,
201.473,3.956e-12,,3.956e-12,
201.479,1.784e-10,,1.784e-10,
201.484,3.723e-9,,3.723e-9,
201.489,6.873e-8,,6.873e-8,
201.494,1.122e-6,,1.122e-6,
201.499,1.619e-5,,1.619e-5,
201.504,2.066e-4,,2.066e-4,
201.509,2.332e-3,,2.332e-3,
201.514,2.327e-2,,2.327e-2,
201.519,2.053e-1,,2.053e-1,
201.524,1.602e+0,,1.602e+0,
201.529,1.106e+1,,1.106e+1,
201.534,6.747e+1,,6.747e+1,
201.539,3.641e+2,,3.641e+2,
201.544,1.738e+3,,1.738e+3,
201.549,7.339e+3,,7.339e+3,
201.554,2.742e+4,,2.742e+4,
201.559,9.065e+4,,9.065e+4,
201.564,2.654e+5,,2.654e+5,
201.569,6.884e+5,,6.884e+5,
201.574,1.584e+6,,1.584e+6,
201.579,3.238e+6,,3.238e+6,
201.584,5.895e+6,,5.895e+6,
201.589,9.596e+6,,9.596e+6,
201.594,1.404e+7,,1.404e+7,
201.599,1.861e+7,,1.861e+7,
201.604,2.256e+7,,2.256e+7,
201.609,2.536e+7,,2.536e+7,
201.614,2.676e+7,,2.676e+7,
201.619,2.680e+7,,2.680e+7,
201.624,2.563e+7,,2.563e+7,
201.629,2.339e+7,,2.339e+7,
201.634,2.023e+7,,2.023e+7,
201.639,1.642e+7,,1.642e+7,
201.644,1.238e+7,,1.238e+7,
201.649,8.581e+6,,8.581e+6,
201.654,5.426e+6,,5.426e+6,
201.659,3.108e+6,,3.108e+6,
201.665,1.387e+6,,1.387e+6,
201.670,6.275e+5,,6.275e+5,
201.675,2.537e+5,,2.537e+5,
201.680,9.135e+4,,9.135e+4,
201.685,2.926e+4,,2.926e+4,
201.690,8.321e+3,,8.321e+3,
201.695,2.099e+3,,2.099e+3,
201.700,4.694e+2,,4.694e+2,
201.705,9.300e+1,,9.300e+1,
201.710,1.631e+1,,1.631e+1,
201.715,2.533e+0,,2.533e+0,
201.720,3.481e-1,,3.481e-1,
201.725,4.234e-2,,4.234e-2,
201.730,4.555e-3,,4.555e-3,
201.735,4.336e-4,,4.336e-4,
201.740,3.651e-5,,3.651e-5,
201.745,2.719e-6,,2.719e-6,
201.750,1.791e-7,,1.791e-7,
201.755,1.044e-8,,1.044e-8,
201.760,5.379e-10,,5.379e-10,
201.765,2.452e-11,,2.452e-11,
201.770,9.883e-13,,9.883e-13,
201.775,3.524e-14,,3.524e-14,
201.780,1.099e-15,,1.099e-15,
202.062,1.819e-16,,1.819e-16,
202.067,6.083e-15,,6.083e-15,
202.072,1.800e-13,,1.800e-13,
202.077,4.712e-12,,4.712e-12,
202.082,1.092e-10,,1.092e-10,
202.087,2.238e-9,,2.238e-9,
202.092,4.059e-8,,4.059e-8,
202.097,6.516e-7,,6.516e-7,
202.102,9.256e-6,,9.256e-6,
202.107,1.163e-4,,1.163e-4,
202.112,1.294e-3,,1.294e-3,
202.117,1.274e-2,,1.274e-2,
202.122,1.109e-1,,1.109e-1,
202.127,8.550e-1,,8.550e-1,
202.132,5.831e+0,,5.831e+0,
202.137,3.519e+1,,3.519e+1,
202.142,1.879e+2,,1.879e+2,
202.147,8.882e+2,,8.882e+2,
202.152,3.714e+3,,3.714e+3,
202.157,1.374e+4,,1.374e+4,
202.162,4.500e+4,,4.500e+4,
202.167,1.304e+5,,1.304e+5,
202.172,3.344e+5,,3.344e+5,
202.177,7.586e+5,,7.586e+5,
202.182,1.523e+6,,1.523e+6,
202.187,2.706e+6,,2.706e+6,
202.192,4.255e+6,,4.255e+6,
202.197,5.919e+6,,5.919e+6,
202.202,7.287e+6,,7.287e+6,
202.207,7.938e+6,,7.938e+6,
202.212,7.652e+6,,7.652e+6,
202.218,6.231e+6,,6.231e+6,
202.223,4.590e+6,,4.590e+6,
202.228,2.992e+6,,2.992e+6,
202.233,1.726e+6,,1.726e+6,
202.238,8.807e+5,,8.807e+5,
202.243,3.978e+5,,3.978e+5,
202.248,1.590e+5,,1.590e+5,
202.253,5.622e+4,,5.622e+4,
202.258,1.759e+4,,1.759e+4,
202.263,4.873e+3,,4.873e+3,
202.268,1.194e+3,,1.194e+3,
202.273,2.589e+2,,2.589e+2,
202.278,4.968e+1,,4.968e+1,
202.283,8.436e+0,,8.436e+0,
202.288,1.268e+0,,1.268e+0,
202.293,1.685e-1,,1.685e-1,
202.298,1.983e-2,,1.983e-2,
202.303,2.065e-3,,2.065e-3,
202.308,1.902e-4,,1.902e-4,
202.313,1.551e-5,,1.551e-5,
202.318,1.119e-6,,1.119e-6,
202.323,7.142e-8,,7.142e-8,
202.328,4.034e-9,,4.034e-9,
202.333,2.017e-10,,2.017e-10,
202.338,8.921e-12,,8.921e-12,
202.343,3.492e-13,,3.492e-13,
202.348,1.209e-14,,1.209e-14,
207.215,3.565e-23,,2.149e-14,3.565e-23
207.220,1.076e-21,,2.150e-14,1.076e-21
207.225,2.832e-20,,2.151e-14,2.832e-20
207.230,6.639e-19,,2.152e-14,6.639e-19
207.235,1.386e-17,,2.153e-14,1.386e-17
207.240,2.576e-16,,2.154e-14,2.576e-16
207.245,4.266e-15,,2.155e-14,4.266e-15
207.250,6.291e-14,,2.156e-14,6.291e-14
207.255,8.480e-13,,2.157e-14,8.264e-13
207.260,1.028e-11,,6.062e-13,9.671e-12
207.265,1.160e-10,,1.517e-11,1.008e-10
207.270,1.274e-9,,3.379e-10,9.364e-10
207.275,1.445e-8,,6.702e-9,7.750e-9
207.280,1.755e-7,,1.183e-7,5.715e-8
207.285,2.236e-6,,1.860e-6,3.756e-7
207.290,2.823e-5,,2.603e-5,2.200e-6
207.295,3.358e-4,,3.243e-4,1.149e-5
207.300,3.650e-3,,3.596e-3,5.348e-5
207.305,3.573e-2,,3.551e-2,2.220e-4
207.310,3.130e-1,,3.122e-1,8.215e-4
207.315,2.446e+0,,2.443e+0,2.711e-3
207.320,1.703e+1,,1.702e+1,7.983e-3
207.325,1.056e+2,,1.056e+2,2.097e-2
207.330,5.829e+2,,5.829e+2,4.914e-2
207.335,2.865e+3,,2.865e+3,1.028e-1
207.340,1.254e+4,,1.254e+4,1.919e-1
207.345,4.886e+4,,4.886e+4,3.197e-1
207.350,1.695e+5,,1.695e+5,4.756e-1
207.355,5.233e+5,,5.233e+5,6.317e-1
207.360,1.439e+6,,1.439e+6,7.493e-1
207.365,3.521e+6,,3.521e+6,7.937e-1
207.370,7.671e+6,,7.671e+6,7.509e-1
207.376,1.675e+7,,1.675e+7,6.053e-1
207.381,2.827e+7,,2.827e+7,4.467e-1
207.386,4.246e+7,,4.246e+7,2.944e-1
207.391,5.678e+7,,5.678e+7,1.734e-1
207.396,6.759e+7,,6.759e+7,9.117e-2
207.401,7.164e+7,,7.164e+7,4.282e-2
207.406,6.759e+7,,6.759e+7,1.797e-2
207.411,5.678e+7,,5.678e+7,6.730e-3
207.416,4.246e+7,,4.246e+7,2.251e-3
207.421,2.827e+7,,2.827e+7,6.722e-4
207.426,1.675e+7,,1.675e+7,1.792e-4
207.431,8.840e+6,,8.840e+6,4.264e-5
207.436,4.153e+6,,4.153e+6,9.054e-6
207.441,1.737e+6,,1.737e+6,1.715e-6
207.446,6.466e+5,,6.466e+5,2.899e-7
207.451,2.143e+5,,2.143e+5,4.372e-8
207.456,6.324e+4,,6.324e+4,5.878e-9
207.461,1.661e+4,,1.661e+4,7.049e-10
207.466,3.885e+3,,3.885e+3,7.537e-11
207.471,8.090e+2,,8.090e+2,7.184e-12
207.476,1.500e+2,,1.500e+2,6.105e-13
207.481,2.474e+1,,2.474e+1,4.623e-14
207.486,3.635e+0,,3.635e+0,3.120e-15
207.491,4.755e-1,,4.755e-1,1.877e-16
207.496,5.536e-2,,5.536e-2,1.006e-17
207.501,5.739e-3,,5.739e-3,4.802e-19
207.506,5.296e-4,,5.296e-4,2.043e-20
207.511,4.351e-5,,4.351e-5,7.384e-22
207.516,3.182e-6,,3.182e-6,7.369e-22
207.521,2.072e-7,,2.072e-7,7.353e-22
207.526,1.201e-8,,1.201e-8,7.337e-22
207.531,6.199e-10,,6.199e-10,7.322e-22
207.536,2.848e-11,,2.848e-11,7.306e-22
207.541,1.165e-12,,1.165e-12,7.291e-22
207.546,4.242e-14,,4.242e-14,7.275e-22
208.768,3.463e-22,,1.379e-14,3.463e-22
208.773,9.710e-21,,1.367e-14,9.710e-21
208.778,2.428e-19,,1.355e-14,2.428e-19
208.783,5.414e-18,,1.344e-14,5.414e-18
208.788,1.077e-16,,1.332e-14,1.077e-16
208.793,1.909e-15,,1.320e-14,1.909e-15
208.798,3.019e-14,,1.309e-14,3.019e-14
208.803,4.257e-13,,1.297e-14,4.257e-13
208.808,5.353e-12,,1.285e-14,5.353e-12
208.813,6.003e-11,,1.273e-14,6.003e-11
208.818,6.004e-10,,1.262e-14,6.004e-10
208.823,5.354e-9,,1.250e-14,5.354e-9
208.828,4.258e-8,,1.238e-14,4.258e-8
208.833,3.020e-7,,1.226e-14,3.020e-7
208.838,1.910e-6,,1.215e-14,1.910e-6
208.843,1.077e-5,,1.203e-14,1.077e-5
208.849,7.380e-5,,1.189e-14,7.380e-5
208.854,3.235e-4,,1.177e-14,3.235e-4
208.859,1.264e-3,,1.166e-14,1.264e-3
208.864,4.407e-3,,1.154e-14,4.407e-3
208.869,1.370e-2,,1.142e-14,1.370e-2
208.874,3.798e-2,,1.130e-14,3.798e-2
208.879,9.387e-2,,1.119e-14,9.387e-2
208.884,2.069e-1,,1.107e-14,2.069e-1
208.889,4.068e-1,,1.095e-14,4.068e-1
208.894,7.131e-1,,1.084e-14,7.131e-1
208.899,1.115e+0,,1.072e-14,1.115e+0
208.904,1.554e+0,,1.060e-14,1.554e+0
208.909,1.932e+0,,1.048e-14,1.932e+0
208.914,2.142e+0,,1.037e-14,2.142e+0
208.919,2.117e+0,,1.025e-14,2.117e+0
208.924,1.867e+0,,1.013e-14,1.867e+0
208.929,1.468e+0,,1.002e-14,1.468e+0
208.934,1.029e+0,,9.898e-15,1.029e+0
208.939,6.432e-1,,9.781e-15,6.432e-1
208.944,3.586e-1,,9.664e-15,3.586e-1
208.949,1.783e-1,,9.546e-15,1.783e-1
208.954,7.905e-2,,9.429e-15,7.905e-2
208.959,3.126e-2,,9.312e-15,3.126e-2
208.964,1.102e-2,,9.195e-15,1.102e-2
208.969,3.465e-3,,9.078e-15,3.465e-3
208.974,9.715e-4,,8.961e-15,9.715e-4
208.979,2.429e-4,,8.843e-15,2.429e-4
208.984,5.416e-5,,8.726e-15,5.416e-5
208.989,1.077e-5,,8.609e-15,1.077e-5
208.994,1.910e-6,,8.492e-15,1.910e-6
208.999,3.020e-7,,8.375e-15,3.020e-7
209.004,4.258e-8,,8.258e-15,4.258e-8
209.009,5.354e-9,,8.140e-15,5.354e-9
209.014,6.004e-10,,8.023e-15,6.004e-10
209.019,6.003e-11,,7.906e-15,6.003e-11
209.024,5.353e-12,,7.789e-15,5.353e-12
209.029,4.257e-13,,7.672e-15,4.257e-13
209.035,1.754e-14,,7.531e-15,1.754e-14
209.040,1.084e-15,,7.414e-15,1.084e-15
209.045,5.975e-17,,7.297e-15,5.975e-17
209.050,2.937e-18,,7.180e-15,2.937e-18
209.055,1.287e-19,,7.062e-15,1.287e-19
209.060,5.031e-21,,6.945e-15,5.031e-21
209.065,1.754e-22,,6.828e-15,1.754e-22
209.120,1.600e-21,,5.539e-15,1.600e-21
209.125,4.336e-20,,5.422e-15,4.336e-20
209.130,1.048e-18,,5.305e-15,1.048e-18
209.135,2.261e-17,,5.188e-15,2.261e-17
209.140,4.351e-16,,5.071e-15,4.351e-16
209.145,7.469e-15,,4.953e-15,7.469e-15
209.150,1.144e-13,,4.836e-15,1.144e-13
209.155,1.563e-12,,4.719e-15,1.563e-12
209.160,1.905e-11,,4.602e-15,1.905e-11
209.165,2.071e-10,,4.485e-15,2.071e-10
209.170,2.009e-9,,4.367e-15,2.009e-9
209.175,1.738e-8,,4.250e-15,1.738e-8
209.180,1.342e-7,,4.133e-15,1.342e-7
209.185,9.239e-7,,4.016e-15,9.239e-7
209.190,5.676e-6,,3.899e-15,5.676e-6
209.195,3.111e-5,,3.782e-15,3.111e-5
209.200,1.521e-4,,3.664e-15,1.521e-4
209.205,6.634e-4,,3.547e-15,6.634e-4
209.210,2.581e-3,,3.430e-15,2.581e-3
209.215,8.960e-3,,3.313e-15,8.960e-3
209.221,3.431e-2,,3.172e-15,3.431e-2
209.226,9.264e-2,,3.055e-15,9.264e-2
209.231,2.232e-1,,2.938e-15,2.232e-1
209.236,4.796e-1,,2.821e-15,4.796e-1
209.241,9.194e-1,,2.704e-15,9.194e-1
209.246,1.572e+0,,2.586e-15,1.572e+0
209.251,2.399e+0,,2.469e-15,2.399e+0
209.256,3.265e+0,,2.352e-15,3.265e+0
209.261,3.964e+0,,2.235e-15,3.964e+0
209.266,4.294e+0,,2.118e-15,4.294e+0
209.271,4.150e+0,,2.001e-15,4.150e+0
209.276,3.577e+0,,1.883e-15,3.577e+0
209.281,2.751e+0,,5.439e-14,2.751e+0
209.286,1.887e+0,,1.401e-12,1.887e+0
209.291,1.155e+0,,3.221e-11,1.155e+0
209.296,6.307e-1,,6.608e-10,6.307e-1
209.301,3.072e-1,,1.209e-8,3.072e-1
209.306,1.335e-1,,1.975e-7,1.335e-1
209.311,5.176e-2,,2.878e-6,5.175e-2
209.316,1.793e-2,,3.741e-5,1.790e-2
209.321,5.956e-3,,4.340e-4,5.522e-3
209.326,6.012e-3,,4.492e-3,1.520e-3
209.331,4.186e-2,,4.148e-2,3.731e-4
209.336,3.419e-1,,3.418e-1,8.173e-5
209.341,2.513e+0,,2.513e+0,1.597e-5
209.346,1.649e+1,,1.649e+1,2.784e-6
209.351,9.650e+1,,9.650e+1,4.329e-7
209.356,5.040e+2,,5.040e+2,6.006e-8
209.361,2.349e+3,,2.349e+3,7.433e-9
209.366,9.765e+3,,9.765e+3,8.206e-10
209.371,3.623e+4,,3.623e+4,8.083e-11
209.376,1.199e+5,,1.199e+5,7.102e-12
209.381,3.542e+5,,3.542e+5,5.567e-13
209.386,9.334e+5,,9.334e+5,3.893e-14
209.391,2.195e+6,,2.195e+6,2.429e-15
209.396,4.605e+6,,4.605e+6,1.352e-16
209.402,9.639e+6,,9.639e+6,3.631e-18
209.407,1.574e+7,,1.574e+7,1.572e-19
209.412,2.293e+7,,2.293e+7,6.070e-21
209.417,2.980e+7,,2.980e+7,2.091e-22
209.422,3.458e+7,,3.458e+7,2.091e-22
209.427,3.583e+7,,3.583e+7,2.090e-22
209.432,3.324e+7,,3.324e+7,2.090e-22
209.437,2.779e+7,,2.779e+7,2.089e-22
209.442,2.139e+7,,2.139e+7,2.089e-22
209.447,1.612e+7,,1.612e+7,2.089e-22
209.452,1.343e+7,,1.343e+7,2.088e-22
209.457,1.389e+7,,1.389e+7,2.088e-22
209.462,1.703e+7,,1.703e+7,2.087e-22
209.467,2.162e+7,,2.162e+7,2.087e-22
209.472,2.603e+7,,2.603e+7,2.086e-22
209.477,2.879e+7,,2.879e+7,2.086e-22
209.482,2.923e+7,,2.923e+7,2.085e-22
209.487,2.774e+7,,2.774e+7,2.085e-22
209.492,2.547e+7,,2.547e+7,2.084e-22
209.497,2.363e+7,,2.363e+7,2.084e-22
209.502,2.276e+7,,2.276e+7,2.083e-22
209.507,2.250e+7,,2.250e+7,2.083e-22
209.512,2.192e+7,,2.192e+7,2.082e-22
209.517,2.021e+7,,2.021e+7,2.082e-22
209.522,1.714e+7,,1.714e+7,2.081e-22
209.527,1.318e+7,,1.318e+7,2.081e-22
209.532,9.105e+6,,9.105e+6,2.080e-22
209.537,5.636e+6,,5.636e+6,2.080e-22
209.542,3.120e+6,,3.120e+6,2.079e-22
209.547,1.544e+6,,1.544e+6,2.079e-22
209.552,6.821e+5,,6.821e+5,2.078e-22
209.557,2.691e+5,,2.691e+5,2.078e-22
209.562,9.483e+4,,9.483e+4,2.077e-22
209.567,2.983e+4,,2.983e+4,2.077e-22
209.572,8.378e+3,,8.378e+3,2.076e-22
209.577,2.101e+3,,2.101e+3,2.076e-22
209.582,4.702e+2,,4.702e+2,2.075e-22
209.588,6.716e+1,,6.716e+1,2.075e-22
209.593,1.171e+1,,1.171e+1,2.074e-22
209.598,1.823e+0,,1.823e+0,2.074e-22
209.603,2.532e-1,,2.532e-1,2.073e-22
209.608,3.140e-2,,3.140e-2,2.073e-22
209.613,3.475e-3,,3.475e-3,2.072e-22
209.618,3.433e-4,,3.433e-4,2.072e-22
209.623,3.027e-5,,3.027e-5,2.071e-22
209.628,2.382e-6,,2.382e-6,2.071e-22
209.633,1.673e-7,,1.673e-7,2.071e-22
209.638,1.049e-8,,1.049e-8,2.070e-22
209.643,5.867e-10,,5.867e-10,2.070e-22
209.648,2.929e-11,,2.929e-11,2.069e-22
209.653,1.305e-12,,1.305e-12,2.069e-22
209.658,5.191e-14,,5.191e-14,2.068e-22
209.663,1.821e-15,,1.821e-15,2.068e-22
211.679,1.891e-14,1.891e-14,2.699e-15,1.873e-22
211.684,5.410e-13,5.410e-13,2.701e-15,1.872e-22
211.689,1.385e-11,1.385e-11,2.703e-15,1.872e-22
211.694,3.171e-10,3.171e-10,2.706e-15,1.871e-22
211.699,6.496e-9,6.496e-9,2.708e-15,1.871e-22
211.704,1.190e-7,1.190e-7,2.710e-15,1.870e-22
211.709,1.951e-6,1.951e-6,2.712e-15,1.870e-22
211.714,2.861e-5,2.861e-5,2.714e-15,1.869e-22
211.719,3.753e-4,3.753e-4,2.717e-15,1.869e-22
211.724,4.404e-3,4.404e-3,2.719e-15,1.868e-22
211.729,4.623e-2,4.623e-2,2.721e-15,1.868e-22
211.734,4.342e-1,4.342e-1,2.723e-15,1.867e-22
211.739,3.647e+0,3.647e+0,2.725e-15,1.867e-22
211.744,2.740e+1,2.740e+1,2.727e-15,1.866e-22
211.749,1.842e+2,1.842e+2,2.730e-15,1.866e-22
211.754,1.108e+3,1.108e+3,2.732e-15,1.865e-22
211.759,5.959e+3,5.959e+3,2.734e-15,1.865e-22
211.764,2.867e+4,2.867e+4,2.736e-15,1.865e-22
211.769,1.234e+5,1.234e+5,2.738e-15,1.864e-22
211.774,4.753e+5,4.753e+5,2.740e-15,1.864e-22
211.779,1.637e+6,1.637e+6,2.743e-15,1.863e-22
211.784,5.045e+6,5.045e+6,2.745e-15,1.863e-22
211.789,1.391e+7,1.391e+7,2.747e-15,1.862e-22
211.794,3.429e+7,3.429e+7,2.749e-15,1.862e-22
211.800,8.744e+7,8.744e+7,2.752e-15,1.861e-22
211.805,1.687e+8,1.687e+8,2.754e-15,1.861e-22
211.810,2.913e+8,2.913e+8,2.756e-15,1.860e-22
211.815,4.498e+8,4.498e+8,2.758e-15,1.860e-22
211.820,6.214e+8,6.214e+8,2.761e-15,1.859e-22
211.825,7.680e+8,7.680e+8,2.763e-15,1.859e-22
211.830,8.490e+8,8.490e+8,2.765e-15,1.858e-22
211.835,8.396e+8,8.396e+8,2.767e-15,1.858e-22
211.840,7.427e+8,7.427e+8,2.769e-15,1.857e-22
211.845,5.878e+8,5.878e+8,2.771e-15,1.857e-22
211.850,4.161e+8,4.161e+8,2.774e-15,1.856e-22
211.855,2.635e+8,2.635e+8,2.776e-15,1.856e-22
211.860,1.493e+8,1.493e+8,2.778e-15,1.855e-22
211.865,7.565e+7,7.565e+7,2.780e-15,1.855e-22
211.870,3.429e+7,3.429e+7,2.782e-15,1.854e-22
211.875,1.391e+7,1.391e+7,2.784e-15,1.854e-22
211.880,5.045e+6,5.045e+6,2.787e-15,1.853e-22
211.885,1.637e+6,1.637e+6,2.789e-15,1.853e-22
211.890,4.753e+5,4.753e+5,2.791e-15,1.852e-22
211.895,1.234e+5,1.234e+5,2.793e-15,1.852e-22
211.900,2.867e+4,2.867e+4,2.795e-15,1.851e-22
211.905,5.959e+3,5.959e+3,2.798e-15,1.851e-22
211.910,1.108e+3,1.108e+3,2.800e-15,1.850e-22
211.915,1.842e+2,1.842e+2,2.802e-15,1.850e-22
211.920,2.740e+1,2.740e+1,2.804e-15,1.849e-22
211.925,3.647e+0,3.647e+0,2.806e-15,1.849e-22
211.930,4.342e-1,4.342e-1,2.808e-15,1.848e-22
211.935,4.623e-2,4.623e-2,2.811e-15,1.848e-22
211.940,4.404e-3,4.404e-3,2.813e-15,1.848e-22
211.945,3.753e-4,3.753e-4,2.815e-15,1.847e-22
211.950,2.861e-5,2.861e-5,2.817e-15,1.847e-22
211.955,1.951e-6,1.951e-6,2.819e-15,1.846e-22
211.960,1.190e-7,1.190e-7,2.822e-15,1.846e-22
211.965,6.496e-9,6.496e-9,2.824e-15,1.845e-22
211.970,3.171e-10,3.171e-10,2.826e-15,1.845e-22
211.975,1.385e-11,1.385e-11,2.828e-15,1.844e-22
212.187,6.923e-13,6.923e-13,2.920e-15,1.824e-22
212.192,1.784e-11,1.784e-11,2.923e-15,1.823e-22
212.197,4.116e-10,4.116e-10,2.925e-15,1.823e-22
212.202,8.498e-9,8.498e-9,2.927e-15,1.822e-22
212.207,1.570e-7,1.570e-7,2.929e-15,1.822e-22
212.212,2.597e-6,2.597e-6,2.931e-15,1.821e-22
212.217,3.844e-5,3.844e-5,2.934e-15,1.821e-22
212.222,5.093e-4,5.093e-4,2.936e-15,1.820e-22
212.227,6.040e-3,6.040e-3,2.938e-15,1.820e-22
212.232,6.410e-2,6.410e-2,2.940e-15,1.819e-22
212.237,6.089e-1,6.089e-1,2.942e-15,1.819e-22
212.242,5.177e+0,5.177e+0,2.944e-15,1.818e-22
212.247,3.940e+1,3.940e+1,2.947e-15,1.818e-22
212.252,2.683e+2,2.683e+2,2.949e-15,1.817e-22
212.257,1.636e+3,1.636e+3,2.951e-15,1.817e-22
212.262,8.925e+3,8.925e+3,2.953e-15,1.816e-22
212.267,4.358e+4,4.358e+4,2.955e-15,1.816e-22
212.272,1.905e+5,1.905e+5,2.957e-15,1.815e-22
212.277,7.452e+5,7.452e+5,2.960e-15,1.815e-22
212.282,2.609e+6,2.609e+6,2.962e-15,1.814e-22
212.287,8.177e+6,8.177e+6,2.964e-15,1.814e-22
212.292,2.294e+7,2.294e+7,2.966e-15,1.813e-22
212.297,5.758e+7,5.758e+7,2.968e-15,1.813e-22
212.302,1.294e+8,1.294e+8,2.971e-15,1.813e-22
212.307,2.602e+8,2.602e+8,2.973e-15,1.812e-22
212.312,4.683e+8,4.683e+8,2.975e-15,1.812e-22
212.317,7.544e+8,7.544e+8,2.977e-15,1.811e-22
212.322,1.088e+9,1.088e+9,2.979e-15,1.811e-22
212.327,1.404e+9,1.404e+9,2.981e-15,1.810e-22
212.332,1.622e+9,1.622e+9,2.984e-15,1.810e-22
212.337,1.676e+9,1.676e+9,2.986e-15,1.809e-22
212.342,1.551e+9,1.551e+9,2.988e-15,1.809e-22
212.347,1.285e+9,1.285e+9,2.990e-15,1.808e-22
212.353,8.851e+8,8.851e+8,2.993e-15,1.808e-22
212.358,5.743e+8,5.743e+8,2.995e-15,1.807e-22
212.363,3.335e+8,3.335e+8,2.997e-15,1.807e-22
212.368,1.734e+8,1.734e+8,2.999e-15,1.806e-22
212.373,8.066e+7,8.066e+7,3.001e-15,1.806e-22
212.378,3.359e+7,3.359e+7,3.004e-15,1.805e-22
212.383,1.252e+7,1.252e+7,3.006e-15,1.805e-22
212.388,4.176e+6,4.176e+6,3.008e-15,1.804e-22
212.393,1.247e+6,1.247e+6,3.010e-15,1.804e-22
212.398,3.331e+5,3.331e+5,3.012e-15,1.803e-22
212.403,7.968e+4,7.968e+4,3.015e-15,1.803e-22
212.408,1.706e+4,1.706e+4,3.017e-15,1.802e-22
212.413,3.268e+3,3.268e+3,3.019e-15,1.802e-22
212.418,5.604e+2,5.604e+2,3.021e-15,1.801e-22
212.423,8.601e+1,8.601e+1,3.023e-15,1.801e-22
212.428,1.181e+1,1.181e+1,3.025e-15,1.800e-22
212.433,1.453e+0,1.453e+0,3.028e-15,1.800e-22
212.438,1.599e-1,1.599e-1,3.030e-15,1.799e-22
212.443,1.574e-2,1.574e-2,3.032e-15,1.799e-22
212.448,1.388e-3,1.388e-3,3.034e-15,1.798e-22
212.453,1.095e-4,1.095e-4,3.036e-15,1.798e-22
212.458,7.734e-6,7.734e-6,3.039e-15,1.797e-22
212.463,4.888e-7,4.888e-7,3.041e-15,1.797e-22
212.468,2.765e-8,2.765e-8,3.043e-15,1.796e-22
212.473,1.400e-9,1.400e-9,3.045e-15,1.796e-22
212.478,6.345e-11,6.345e-11,3.047e-15,1.796e-22
212.483,2.574e-12,2.574e-12,3.049e-15,1.795e-22
212.815,1.895e-13,1.895e-13,3.194e-15,1.763e-22
212.820,5.006e-12,5.006e-12,3.196e-15,1.762e-22
212.825,1.185e-10,1.185e-10,3.198e-15,1.762e-22
212.830,2.511e-9,2.511e-9,3.201e-15,1.761e-22
212.835,4.765e-8,4.765e-8,3.203e-15,1.761e-22
212.840,8.101e-7,8.101e-7,3.205e-15,1.761e-22
212.845,1.233e-5,1.233e-5,3.207e-15,1.760e-22
212.850,1.682e-4,1.682e-4,3.209e-15,1.760e-22
212.855,2.054e-3,2.054e-3,3.212e-15,1.759e-22
212.860,2.247e-2,2.247e-2,3.214e-15,1.759e-22
212.865,2.201e-1,2.201e-1,3.216e-15,1.758e-22
212.870,1.931e+0,1.931e+0,3.218e-15,1.758e-22
212.875,1.518e+1,1.518e+1,3.220e-15,1.757e-22
212.880,1.068e+2,1.068e+2,3.222e-15,1.757e-22
212.885,6.732e+2,6.732e+2,3.225e-15,1.756e-22
212.890,3.800e+3,3.800e+3,3.227e-15,1.756e-22
212.895,1.922e+4,1.922e+4,3.229e-15,1.755e-22
212.900,8.701e+4,8.701e+4,3.231e-15,1.755e-22
212.906,4.608e+5,4.608e+5,3.234e-15,1.754e-22
212.911,1.637e+6,1.637e+6,3.236e-15,1.754e-22
212.916,5.209e+6,5.209e+6,3.238e-15,1.753e-22
212.921,1.485e+7,1.485e+7,3.240e-15,1.753e-22
212.926,3.789e+7,3.789e+7,3.242e-15,1.752e-22
212.931,8.663e+7,8.663e+7,3.245e-15,1.752e-22
212.936,1.774e+8,1.774e+8,3.247e-15,1.751e-22
212.941,3.252e+8,3.252e+8,3.249e-15,1.751e-22
212.946,5.341e+8,5.341e+8,3.251e-15,1.750e-22
212.951,7.856e+8,7.856e+8,3.253e-15,1.750e-22
212.956,1.035e+9,1.035e+9,3.256e-15,1.749e-22
212.961,1.221e+9,1.221e+9,3.258e-15,1.749e-22
212.966,1.290e+9,1.290e+9,3.260e-15,1.748e-22
212.971,1.221e+9,1.221e+9,3.262e-15,1.748e-22
212.976,1.035e+9,1.035e+9,3.264e-15,1.747e-22
212.981,7.856e+8,7.856e+8,3.266e-15,1.747e-22
212.986,5.341e+8,5.341e+8,3.269e-15,1.746e-22
212.991,3.252e+8,3.252e+8,3.271e-15,1.746e-22
212.996,1.774e+8,1.774e+8,3.273e-15,1.745e-22
213.001,8.663e+7,8.663e+7,3.275e-15,1.745e-22
213.006,3.789e+7,3.789e+7,3.277e-15,1.744e-22
213.011,1.485e+7,1.485e+7,3.279e-15,1.744e-22
213.016,5.209e+6,5.209e+6,3.282e-15,1.744e-22
213.021,1.637e+6,1.637e+6,3.284e-15,1.743e-22
213.026,4.608e+5,4.608e+5,3.286e-15,1.743e-22
213.031,1.161e+5,1.161e+5,3.288e-15,1.742e-22
213.036,2.622e+4,2.622e+4,3.290e-15,1.742e-22
213.041,5.302e+3,5.302e+3,3.293e-15,1.741e-22
