Wavelength (nm),Sum(calc),Ti I (1.8e-2),Ti II (9.6e-1),Ti III (2.1e-2)
200.605,3.304e-14,,,3.304e-14
200.610,8.017e-13,,,8.017e-13
200.615,1.718e-11,,,1.718e-11
200.620,3.253e-10,,,3.253e-10
200.625,5.440e-9,,,5.440e-9
200.630,8.035e-8,,,8.035e-8
200.635,1.048e-6,,,1.048e-6
200.640,1.208e-5,,,1.208e-5
200.645,1.230e-4,,,1.230e-4
200.650,1.106e-3,,,1.106e-3
200.655,8.784e-3,,,8.784e-3
200.660,6.162e-2,,,6.162e-2
200.665,3.819e-1,,,3.819e-1
200.670,2.090e+0,,,2.090e+0
200.675,1.011e+1,,,1.011e+1
200.680,4.317e+1,,,4.317e+1
200.685,1.629e+2,,,1.629e+2
200.690,5.428e+2,,,5.428e+2
200.695,1.598e+3,,,1.598e+3
200.700,4.158e+3,,,4.158e+3
200.705,9.561e+3,,,9.561e+3
200.710,1.944e+4,,,1.944e+4
200.715,3.495e+4,,,3.495e+4
200.720,5.569e+4,,,5.569e+4
200.725,7.875e+4,,,7.875e+4
200.730,9.921e+4,,,9.921e+4
200.735,1.120e+5,,,1.120e+5
200.740,1.144e+5,,,1.144e+5
200.745,1.071e+5,,,1.071e+5
200.750,9.353e+4,,,9.353e+4
200.755,7.737e+4,,,7.737e+4
200.760,6.123e+4,,,6.123e+4
200.765,4.625e+4,,,4.625e+4
200.770,3.293e+4,,,3.293e+4
200.775,2.173e+4,,,2.173e+4
200.780,1.308e+4,,,1.308e+4
200.785,7.095e+3,,,7.095e+3
200.790,3.441e+3,,,3.441e+3
200.795,1.484e+3,,,1.484e+3
200.800,5.680e+2,,,5.680e+2
200.805,1.924e+2,,,1.924e+2
200.810,5.767e+1,,,5.767e+1
200.815,1.528e+1,,,1.528e+1
200.820,3.576e+0,,,3.576e+0
200.825,7.397e-1,,,7.397e-1
200.830,1.352e-1,,,1.352e-1
200.835,2.182e-2,,,2.182e-2
200.840,3.111e-3,,,3.111e-3
200.845,3.919e-4,,,3.919e-4
200.850,4.360e-5,,,4.360e-5
200.855,4.286e-6,,,4.286e-6
200.860,3.721e-7,,,3.721e-7
200.865,2.853e-8,,,2.853e-8
200.870,1.933e-9,,,1.933e-9
200.875,1.157e-10,,,1.157e-10
200.880,6.114e-12,,,6.114e-12
200.885,2.855e-13,,,2.855e-13
200.949,6.051e-14,,,6.051e-14
200.954,1.452e-12,,,1.452e-12
200.959,3.080e-11,,,3.080e-11
200.964,5.772e-10,,,5.772e-10
200.969,9.560e-9,,,9.560e-9
200.974,1.399e-7,,,1.399e-7
200.979,1.809e-6,,,1.809e-6
200.984,2.068e-5,,,2.068e-5
200.989,2.089e-4,,,2.089e-4
200.994,1.864e-3,,,1.864e-3
200.999,1.470e-2,,,1.470e-2
201.004,1.024e-1,,,1.024e-1
201.009,6.309e-1,,,6.309e-1
201.014,3.433e+0,,,3.433e+0
201.019,1.651e+1,,,1.651e+1
201.024,7.016e+1,,,7.016e+1
201.029,2.635e+2,,,2.635e+2
201.034,8.743e+2,,,8.743e+2
201.039,2.564e+3,,,2.564e+3
201.044,6.644e+3,,,6.644e+3
201.049,1.522e+4,,,1.522e+4
201.054,3.079e+4,,,3.079e+4
201.059,5.506e+4,,,5.506e+4
201.064,8.700e+4,,,8.700e+4
201.069,1.215e+5,,,1.215e+5
201.074,1.499e+5,,,1.499e+5
201.079,1.635e+5,,,1.635e+5
201.084,1.575e+5,,,1.575e+5
201.089,1.341e+5,,,1.341e+5
201.094,1.009e+5,,,1.009e+5
201.099,6.710e+4,,,6.710e+4
201.104,3.943e+4,,,3.943e+4
201.109,2.047e+4,,,2.047e+4
201.114,9.393e+3,,,9.393e+3
201.119,3.809e+3,,,3.809e+3
201.124,1.365e+3,,,1.365e+3
201.129,4.321e+2,,,4.321e+2
201.134,1.209e+2,,,1.209e+2
201.139,2.989e+1,,,2.989e+1
201.144,6.531e+0,,,6.531e+0
201.149,1.261e+0,,,1.261e+0
201.154,2.151e-1,,,2.151e-1
201.159,3.243e-2,,,3.243e-2
201.164,4.321e-3,,,4.321e-3
201.169,5.088e-4,,,5.088e-4
201.174,5.293e-5,,,5.293e-5
201.179,4.866e-6,,,4.866e-6
201.184,3.954e-7,,,3.954e-7
201.189,2.838e-8,,,2.838e-8
201.194,1.801e-9,,,1.801e-9
201.199,1.010e-10,,,1.010e-10
201.204,5.001e-12,,,5.001e-12
201.209,2.189e-13,,,2.189e-13
201.214,8.470e-15,,,8.470e-15
209.591,2.324e-14,,,2.324e-14
209.596,5.175e-13,,,5.175e-13
209.601,1.029e-11,,,1.029e-11
209.606,1.825e-10,,,1.825e-10
209.611,2.889e-9,,,2.889e-9
209.616,4.084e-8,,,4.084e-8
209.621,5.151e-7,,,5.151e-7
209.626,5.800e-6,,,5.800e-6
209.631,5.829e-5,,,5.829e-5
209.636,5.228e-4,,,5.228e-4
209.641,4.185e-3,,,4.185e-3
209.646,2.991e-2,,,2.991e-2
209.651,1.907e-1,,,1.907e-1
209.656,1.086e+0,,,1.086e+0
209.661,5.517e+0,,,5.517e+0
209.666,2.502e+1,,,2.502e+1
209.671,1.013e+2,,,1.013e+2
209.676,3.659e+2,,,3.659e+2
209.681,1.180e+3,,,1.180e+3
209.686,3.396e+3,,,3.396e+3
209.691,8.723e+3,,,8.723e+3
209.696,2.000e+4,,,2.000e+4
209.701,4.093e+4,,,4.093e+4
209.706,7.476e+4,,,7.476e+4
209.711,1.219e+5,,,1.219e+5
209.716,1.774e+5,,,1.774e+5
209.721,2.304e+5,,,2.304e+5
209.726,2.671e+5,,,2.671e+5
209.731,2.763e+5,,,2.763e+5
209.736,2.552e+5,,,2.552e+5
209.741,2.103e+5,,,2.103e+5
209.746,1.548e+5,,,1.548e+5
209.751,1.016e+5,,,1.016e+5
209.756,5.956e+4,,,5.956e+4
209.761,3.116e+4,,,3.116e+4
209.766,1.455e+4,,,1.455e+4
209.771,6.063e+3,,,6.063e+3
209.776,2.255e+3,,,2.255e+3
209.781,7.488e+2,,,7.488e+2
209.786,2.219e+2,,,2.219e+2
209.791,5.869e+1,,,5.869e+1
209.796,1.385e+1,,,1.385e+1
209.801,2.919e+0,,,2.919e+0
209.806,5.490e-1,,,5.490e-1
209.811,9.215e-2,,,9.215e-2
209.816,1.381e-2,,,1.381e-2
209.821,1.846e-3,,,1.846e-3
209.826,2.204e-4,,,2.204e-4
209.831,2.348e-5,,,2.348e-5
209.836,2.232e-6,,,2.232e-6
209.841,1.894e-7,,,1.894e-7
209.846,1.435e-8,,,1.435e-8
209.851,9.704e-10,,,9.704e-10
209.856,6.199e-11,,,6.199e-11
209.861,6.522e-11,,,6.522e-11
209.866,9.987e-10,,,9.987e-10
209.871,1.434e-8,,,1.434e-8
209.876,1.840e-7,,,1.840e-7
209.881,2.106e-6,,,2.106e-6
209.886,2.153e-5,,,2.153e-5
209.891,1.965e-4,,,1.965e-4
209.896,1.601e-3,,,1.601e-3
209.901,1.165e-2,,,1.165e-2
209.906,7.565e-2,,,7.565e-2
209.911,4.387e-1,,,4.387e-1
209.916,2.271e+0,,,2.271e+0
209.921,1.050e+1,,,1.050e+1
209.925,3.292e+1,,,3.292e+1
209.930,1.241e+2,,,1.241e+2
209.935,4.174e+2,,,4.174e+2
209.940,1.254e+3,,,1.254e+3
209.945,3.363e+3,,,3.363e+3
209.950,8.052e+3,,,8.052e+3
209.955,1.721e+4,,,1.721e+4
209.960,3.285e+4,,,3.285e+4
209.965,5.598e+4,,,5.598e+4
209.970,8.515e+4,,,8.515e+4
209.975,1.157e+5,,,1.157e+5
209.980,1.402e+5,,,1.402e+5
209.985,1.518e+5,,,1.518e+5
209.990,1.468e+5,,,1.468e+5
209.995,1.266e+5,,,1.266e+5
210.000,9.757e+4,,,9.757e+4
210.005,6.711e+4,,,6.711e+4
210.010,4.121e+4,,,4.121e+4
210.015,2.260e+4,,,2.260e+4
210.020,1.106e+4,,,1.106e+4
210.025,4.834e+3,,,4.834e+3
210.030,1.886e+3,,,1.886e+3
210.035,6.570e+2,,,6.570e+2
210.040,2.043e+2,,,2.043e+2
210.045,5.673e+1,,,5.673e+1
210.050,1.406e+1,,,1.406e+1
210.055,3.112e+0,,,3.112e+0
210.060,6.150e-1,,,6.150e-1
210.065,1.085e-1,,,1.085e-1
210.070,1.709e-2,,,1.709e-2
210.075,2.403e-3,,,2.403e-3
210.080,3.017e-4,,,3.017e-4
210.085,3.381e-5,,,3.381e-5
210.090,3.383e-6,,,3.383e-6
210.095,3.023e-7,,,3.023e-7
210.100,2.411e-8,,,2.411e-8
210.105,1.717e-9,,,1.717e-9
210.110,1.092e-10,,,1.092e-10
210.115,6.196e-12,,,6.196e-12
210.120,3.140e-13,,,3.140e-13
210.225,6.937e-15,,,6.937e-15
210.230,1.482e-13,,,1.482e-13
210.235,2.830e-12,,,2.830e-12
210.240,4.824e-11,,,4.824e-11
210.245,7.345e-10,,,7.345e-10
210.250,9.988e-9,,,9.988e-9
210.255,1.213e-7,,,1.213e-7
210.260,1.316e-6,,,1.316e-6
210.265,1.275e-5,,,1.275e-5
210.270,1.104e-4,,,1.104e-4
210.275,8.532e-4,,,8.532e-4
210.280,5.891e-3,,,5.891e-3
210.285,3.632e-2,,,3.632e-2
210.290,2.001e-1,,,2.001e-1
210.295,9.841e-1,,,9.841e-1
210.300,4.324e+0,,,4.324e+0
210.305,1.697e+1,,,1.697e+1
210.310,5.947e+1,,,5.947e+1
210.315,1.862e+2,,,1.862e+2
210.320,5.205e+2,,,5.205e+2
210.325,1.300e+3,,,1.300e+3
210.330,2.899e+3,,,2.899e+3
210.335,5.776e+3,,,5.776e+3
210.340,1.028e+4,,,1.028e+4
210.345,1.633e+4,,,1.633e+4
210.350,2.318e+4,,,2.318e+4
210.355,2.939e+4,,,2.939e+4
210.360,3.328e+4,,,3.328e+4
210.365,3.366e+4,,,3.366e+4
210.370,3.041e+4,,,3.041e+4
210.375,2.453e+4,,,2.453e+4
210.380,1.768e+4,,,1.768e+4
210.385,1.138e+4,,,1.138e+4
210.390,6.540e+3,,,6.540e+3
210.395,3.358e+3,,,3.358e+3
210.400,1.540e+3,,,1.540e+3
210.405,6.308e+2,,,6.308e+2
210.410,2.309e+2,,,2.309e+2
210.415,7.603e+1,,,7.603e+1
210.420,2.493e+1,,,2.493e+1
210.425,1.774e+1,,,1.774e+1
210.430,4.529e+1,,,4.529e+1
210.435,1.441e+2,,,1.441e+2
210.440,4.207e+2,,,4.207e+2
210.445,1.100e+3,,,1.100e+3
210.450,2.572e+3,,,2.572e+3
210.455,5.386e+3,,,5.386e+3
210.460,1.011e+4,,,1.011e+4
210.465,1.709e+4,,,1.709e+4
210.470,2.610e+4,,,2.610e+4
210.475,3.630e+4,,,3.630e+4
210.480,4.654e+4,,,4.654e+4
210.485,5.584e+4,,,5.584e+4
210.490,6.373e+4,,,6.373e+4
210.495,7.006e+4,,,7.006e+4
210.500,7.440e+4,,,7.440e+4
210.505,7.565e+4,,,7.565e+4
210.510,7.254e+4,,,7.254e+4
210.515,6.453e+4,,,6.453e+4
210.520,5.255e+4,,,5.255e+4
210.525,3.880e+4,,,3.880e+4
210.530,2.582e+4,,,2.582e+4
210.535,1.543e+4,,,1.543e+4
210.540,8.265e+3,,,8.265e+3
210.545,3.960e+3,,,3.960e+3
210.550,1.697e+3,,,1.697e+3
210.555,6.498e+2,,,6.498e+2
210.560,2.224e+2,,,2.224e+2
210.565,6.800e+1,,,6.800e+1
210.570,1.857e+1,,,1.857e+1
210.575,4.533e+0,,,4.533e+0
210.580,9.882e-1,,,9.882e-1
210.585,1.924e-1,,,1.924e-1
210.590,3.348e-2,,,3.348e-2
210.595,5.203e-3,,,5.203e-3
210.600,7.223e-4,,,7.223e-4
210.605,8.958e-5,,,8.958e-5
210.610,9.924e-6,,,9.924e-6
210.615,9.821e-7,,,9.821e-7
210.620,8.682e-8,,,8.682e-8
210.625,6.856e-9,,,6.856e-9
210.630,4.837e-10,,,4.837e-10
210.635,3.048e-11,,,3.048e-11
210.640,1.716e-12,,,1.716e-12
210.645,8.629e-14,,,8.629e-14
219.776,1.258e-14,,,1.258e-14
219.781,2.445e-13,,,2.445e-13
219.786,4.284e-12,,,4.284e-12
219.791,6.771e-11,,,6.771e-11
219.796,9.649e-10,,,9.649e-10
219.801,1.240e-8,,,1.240e-8
219.806,1.437e-7,,,1.437e-7
219.811,1.502e-6,,,1.502e-6
219.816,1.416e-5,,,1.416e-5
219.821,1.203e-4,,,1.203e-4
219.826,9.221e-4,,,9.221e-4
219.831,6.373e-3,,,6.373e-3
219.836,3.972e-2,,,3.972e-2
219.841,2.233e-1,,,2.233e-1
219.846,1.132e+0,,,1.132e+0
219.851,5.172e+0,,,5.172e+0
219.856,2.132e+1,,,2.132e+1
219.861,7.924e+1,,,7.924e+1
219.866,2.656e+2,,,2.656e+2
219.871,8.029e+2,,,8.029e+2
219.876,2.189e+3,,,2.189e+3
219.881,5.380e+3,,,5.380e+3
219.886,1.193e+4,,,1.193e+4
219.891,2.384e+4,,,2.384e+4
219.896,4.297e+4,,,4.297e+4
219.901,6.986e+4,,,6.986e+4
219.906,1.024e+5,,,1.024e+5
219.911,1.354e+5,,,1.354e+5
219.916,1.614e+5,,,1.614e+5
219.921,1.735e+5,,,1.735e+5
219.926,1.682e+5,,,1.682e+5
219.931,1.471e+5,,,1.471e+5
219.936,1.159e+5,,,1.159e+5
219.941,8.242e+4,,,8.242e+4
219.945,5.824e+4,,,5.824e+4
219.950,3.437e+4,,,3.437e+4
219.955,1.830e+4,,,1.830e+4
219.960,8.782e+3,,,8.782e+3
219.965,3.801e+3,,,3.801e+3
219.970,1.484e+3,,,1.484e+3
219.975,5.223e+2,,,5.223e+2
219.980,1.658e+2,,,1.658e+2
219.985,4.745e+1,,,4.745e+1
219.990,1.225e+1,,,1.225e+1
219.995,2.852e+0,,,2.852e+0
220.000,5.986e-1,,,5.986e-1
220.005,1.133e-1,,,1.133e-1
220.010,1.934e-2,,,1.934e-2
220.015,2.978e-3,,,2.978e-3
220.020,4.134e-4,,,4.134e-4
220.025,5.175e-5,,,5.175e-5
220.030,5.843e-6,,,5.843e-6
220.035,5.948e-7,,,5.948e-7
220.040,5.461e-8,,,5.461e-8
220.045,4.521e-9,,,4.521e-9
220.050,3.375e-10,,,3.375e-10
220.055,2.273e-11,,,2.273e-11
220.060,1.380e-12,,,1.380e-12
223.632,2.053e-13,,,2.053e-13
223.637,3.464e-12,,,3.464e-12
223.642,5.290e-11,,,5.290e-11
223.647,7.310e-10,,,7.310e-10
223.652,9.141e-9,,,9.141e-9
223.657,1.034e-7,,,1.034e-7
223.662,1.060e-6,,,1.060e-6
223.667,9.820e-6,,,9.820e-6
223.672,8.237e-5,,,8.237e-5
223.677,6.252e-4,,,6.252e-4
223.682,4.295e-3,,,4.295e-3
223.687,2.670e-2,,,2.670e-2
223.692,1.502e-1,,,1.502e-1
223.697,7.648e-1,,,7.648e-1
223.702,3.524e+0,,,3.524e+0
223.707,1.469e+1,,,1.469e+1
223.712,5.544e+1,,,5.544e+1
223.717,1.893e+2,,,1.893e+2
223.722,5.851e+2,,,5.851e+2
223.727,1.636e+3,,,1.636e+3
223.732,4.142e+3,,,4.142e+3
223.737,9.486e+3,,,9.486e+3
223.742,1.966e+4,,,1.966e+4
223.747,3.688e+4,,,3.688e+4
223.752,6.261e+4,,,6.261e+4
223.757,9.619e+4,,,9.619e+4
223.762,1.337e+5,,,1.337e+5
223.767,1.682e+5,,,1.682e+5
223.772,1.916e+5,,,1.916e+5
223.777,1.974e+5,,,1.974e+5
223.782,1.841e+5,,,1.841e+5
223.787,1.553e+5,,,1.553e+5
223.792,1.186e+5,,,1.186e+5
223.797,8.199e+4,,,8.199e+4
223.802,5.128e+4,,,5.128e+4
223.807,2.902e+4,,,2.902e+4
223.812,1.487e+4,,,1.487e+4
223.817,6.892e+3,,,6.892e+3
223.822,2.891e+3,,,2.891e+3
223.827,1.098e+3,,,1.098e+3
223.832,3.771e+2,,,3.771e+2
223.837,1.172e+2,,,1.172e+2
223.842,3.299e+1,,,3.299e+1
223.847,8.400e+0,,,8.400e+0
223.852,1.936e+0,,,1.936e+0
223.857,4.037e-1,,,4.037e-1
223.862,7.618e-2,,,7.618e-2
223.867,1.301e-2,,,1.301e-2
223.872,2.011e-3,,,2.011e-3
223.877,2.813e-4,,,2.813e-4
223.882,3.560e-5,,,3.560e-5
223.887,4.079e-6,,,4.079e-6
223.892,4.228e-7,,,4.228e-7
223.897,3.967e-8,,,3.967e-8
223.902,3.368e-9,,,3.368e-9
223.907,2.588e-10,,,2.588e-10
223.912,1.799e-11,,,1.799e-11
223.917,1.132e-12,,,1.132e-12
223.922,6.447e-14,,,6.447e-14
226.254,3.243e-11,3.243e-11,,8.367e-13
226.259,5.543e-10,5.543e-10,,8.384e-13
226.264,8.593e-9,8.593e-9,,8.400e-13
226.269,1.208e-7,1.208e-7,,8.417e-13
226.274,1.541e-6,1.541e-6,,8.433e-13
226.279,1.783e-5,1.783e-5,,8.450e-13
226.284,1.872e-4,1.872e-4,,8.467e-13
226.289,1.782e-3,1.782e-3,,8.483e-13
226.294,1.538e-2,1.538e-2,,8.500e-13
226.299,1.205e-1,1.205e-1,,8.516e-13
226.304,8.559e-1,8.559e-1,,8.533e-13
226.309,5.515e+0,5.515e+0,,8.549e-13
226.314,3.224e+1,3.224e+1,,8.566e-13
226.319,1.709e+2,1.709e+2,,8.582e-13
226.324,8.219e+2,8.219e+2,,8.599e-13
226.329,3.585e+3,3.585e+3,,8.616e-13
226.334,1.419e+4,1.419e+4,,8.632e-13
226.339,5.091e+4,5.091e+4,,8.649e-13
226.344,1.657e+5,1.657e+5,,8.665e-13
226.349,4.894e+5,4.894e+5,,8.682e-13
226.354,1.311e+6,1.311e+6,,8.698e-13
226.359,3.184e+6,3.184e+6,,8.715e-13
226.364,7.018e+6,7.018e+6,,8.731e-13
226.369,1.403e+7,1.403e+7,,8.748e-13
226.374,2.543e+7,2.543e+7,,8.765e-13
226.379,4.183e+7,4.183e+7,,8.781e-13
226.384,6.239e+7,6.239e+7,,8.798e-13
226.389,8.442e+7,8.442e+7,,8.814e-13
226.394,1.036e+8,1.036e+8,,8.831e-13
226.399,1.154e+8,1.154e+8,,8.847e-13
226.404,1.165e+8,1.165e+8,,8.864e-13
226.409,1.067e+8,1.067e+8,,8.880e-13
226.414,8.864e+7,8.864e+7,,8.897e-13
226.419,6.680e+7,6.680e+7,,8.914e-13
226.424,4.566e+7,4.566e+7,,8.930e-13
226.429,2.831e+7,2.831e+7,,8.947e-13
226.434,1.592e+7,1.592e+7,,8.963e-13
226.439,8.123e+6,8.123e+6,,8.980e-13
226.444,3.759e+6,3.759e+6,,8.996e-13
226.449,1.578e+6,1.578e+6,,9.013e-13
226.454,6.006e+5,6.006e+5,,9.029e-13
226.459,2.074e+5,2.074e+5,,9.046e-13
226.464,6.497e+4,6.497e+4,,9.063e-13
226.469,1.846e+4,1.846e+4,,9.079e-13
226.474,4.757e+3,4.757e+3,,9.096e-13
226.479,1.112e+3,1.112e+3,,9.112e-13
226.484,2.358e+2,2.358e+2,,9.129e-13
226.489,4.536e+1,4.536e+1,,9.145e-13
226.494,7.913e+0,7.913e+0,,9.162e-13
226.499,1.252e+0,1.252e+0,,9.178e-13
226.504,1.797e-1,1.797e-1,,9.195e-13
226.509,2.340e-2,2.340e-2,,9.212e-13
226.514,2.763e-3,2.763e-3,,9.228e-13
226.519,2.960e-4,2.960e-4,,9.245e-13
226.524,2.876e-5,2.876e-5,,9.261e-13
226.529,2.535e-6,2.535e-6,,9.278e-13
226.534,2.026e-7,2.026e-7,,9.294e-13
226.539,1.469e-8,1.469e-8,,9.311e-13
226.544,9.665e-10,9.665e-10,,9.328e-13
226.549,5.766e-11,5.766e-11,,9.344e-13
227.523,3.712e-10,3.712e-10,,1.257e-12
227.528,6.030e-9,6.030e-9,,1.259e-12
227.533,8.895e-8,8.895e-8,,1.260e-12
227.538,1.191e-6,1.191e-6,,1.262e-12
227.543,1.449e-5,1.449e-5,,1.264e-12
227.548,1.600e-4,1.600e-4,,1.265e-12
227.553,1.605e-3,1.605e-3,,1.267e-12
227.558,1.462e-2,1.462e-2,,1.269e-12
227.563,1.209e-1,1.209e-1,,1.270e-12
227.568,9.075e-1,9.075e-1,,1.272e-12
227.573,6.188e+0,6.188e+0,,1.274e-12
227.578,3.831e+1,3.831e+1,,1.275e-12
227.583,2.154e+2,2.154e+2,,1.277e-12
227.588,1.099e+3,1.099e+3,,1.278e-12
227.593,5.097e+3,5.097e+3,,1.280e-12
227.598,2.145e+4,2.145e+4,,1.282e-12
227.603,8.200e+4,8.200e+4,,1.283e-12
227.608,2.846e+5,2.846e+5,,1.285e-12
227.613,8.969e+5,8.969e+5,,1.287e-12
227.618,2.567e+6,2.567e+6,,1.288e-12
227.623,6.670e+6,6.670e+6,,1.290e-12
227.628,1.574e+7,1.574e+7,,1.292e-12
227.633,3.372e+7,3.372e+7,,1.293e-12
227.638,6.561e+7,6.561e+7,,1.295e-12
227.643,1.159e+8,1.159e+8,,1.297e-12
227.648,1.860e+8,1.860e+8,,1.298e-12
227.653,2.709e+8,2.709e+8,,1.300e-12
227.658,3.584e+8,3.584e+8,,1.302e-12
227.663,4.304e+8,4.304e+8,,1.303e-12
227.668,4.695e+8,4.695e+8,,1.305e-12
227.673,4.650e+8,4.650e+8,,1.307e-12
227.678,4.182e+8,4.182e+8,,1.308e-12
227.683,3.415e+8,3.415e+8,,1.310e-12
227.688,2.532e+8,2.532e+8,,1.312e-12
227.693,1.705e+8,1.705e+8,,1.313e-12
227.698,1.043e+8,1.043e+8,,1.315e-12
227.703,5.788e+7,5.788e+7,,1.317e-12
227.708,2.918e+7,2.918e+7,,1.318e-12
227.713,1.336e+7,1.336e+7,,1.320e-12
227.718,5.553e+6,5.553e+6,,1.322e-12
227.723,2.096e+6,2.096e+6,,1.323e-12
227.728,7.185e+5,7.185e+5,,1.325e-12
227.733,2.236e+5,2.236e+5,,1.326e-12
227.738,6.320e+4,6.320e+4,,1.328e-12
227.743,1.622e+4,1.622e+4,,1.330e-12
227.748,3.779e+3,3.779e+3,,1.331e-12
227.753,7.997e+2,7.997e+2,,1.333e-12
227.758,1.537e+2,1.537e+2,,1.335e-12
227.763,2.681e+1,2.681e+1,,1.336e-12
227.768,4.248e+0,4.248e+0,,1.338e-12
227.773,6.111e-1,6.111e-1,,1.340e-12
227.778,7.983e-2,7.983e-2,,1.341e-12
227.783,9.469e-3,9.469e-3,,1.343e-12
227.788,1.020e-3,1.020e-3,,1.345e-12
227.793,9.976e-5,9.976e-5,,1.346e-12
227.798,8.860e-6,8.860e-6,,1.348e-12
227.803,7.146e-7,7.146e-7,,1.350e-12
227.808,5.233e-8,5.233e-8,,1.351e-12
227.813,3.480e-9,3.480e-9,,1.353e-12
227.818,2.101e-10,2.101e-10,,1.355e-12
227.848,1.326e-10,1.326e-10,,1.365e-12
227.853,2.221e-9,2.221e-9,,1.366e-12
227.858,3.379e-8,3.379e-8,,1.368e-12
227.863,4.669e-7,4.669e-7,,1.370e-12
227.868,5.859e-6,5.859e-6,,1.371e-12
227.873,6.678e-5,6.678e-5,,1.373e-12
227.878,6.915e-4,6.915e-4,,1.375e-12
227.883,6.502e-3,6.502e-3,,1.376e-12
227.888,5.554e-2,5.554e-2,,1.378e-12
227.893,4.309e-1,4.309e-1,,1.379e-12
227.898,3.037e+0,3.037e+0,,1.381e-12
227.903,1.944e+1,1.944e+1,,1.383e-12
227.908,1.130e+2,1.130e+2,,1.384e-12
227.913,5.967e+2,5.967e+2,,1.386e-12
227.918,2.862e+3,2.862e+3,,1.388e-12
227.923,1.247e+4,1.247e+4,,1.389e-12
227.928,4.933e+4,4.933e+4,,1.391e-12
227.933,1.773e+5,1.773e+5,,1.393e-12
227.938,5.788e+5,5.788e+5,,1.394e-12
227.943,1.716e+6,1.716e+6,,1.396e-12
227.948,4.622e+6,4.622e+6,,1.398e-12
227.953,1.131e+7,1.131e+7,,1.399e-12
227.957,2.158e+7,2.158e+7,,1.401e-12
227.962,4.439e+7,4.439e+7,,1.402e-12
227.967,8.295e+7,8.295e+7,,1.404e-12
227.972,1.408e+8,1.408e+8,,1.406e-12
227.977,2.171e+8,2.171e+8,,1.407e-12
227.982,3.039e+8,3.039e+8,,1.409e-12
227.987,3.866e+8,3.866e+8,,1.411e-12
227.992,4.465e+8,4.465e+8,,1.412e-12
227.997,4.685e+8,4.685e+8,,1.414e-12
228.002,4.465e+8,4.465e+8,,1.416e-12
228.007,3.866e+8,3.866e+8,,1.417e-12
228.012,3.039e+8,3.039e+8,,1.419e-12
228.017,2.171e+8,2.171e+8,,1.421e-12
228.022,1.408e+8,1.408e+8,,1.422e-12
228.027,8.295e+7,8.295e+7,,1.424e-12
228.032,4.439e+7,4.439e+7,,1.426e-12
228.037,2.158e+7,2.158e+7,,1.427e-12
228.042,9.527e+6,9.527e+6,,1.429e-12
228.047,3.820e+6,3.820e+6,,1.430e-12
228.052,1.391e+6,1.391e+6,,1.432e-12
228.057,4.604e+5,4.604e+5,,1.434e-12
228.062,1.383e+5,1.383e+5,,1.435e-12
228.067,3.776e+4,3.776e+4,,1.437e-12
228.072,9.360e+3,9.360e+3,,1.439e-12
228.077,2.108e+3,2.108e+3,,1.440e-12
228.082,4.311e+2,4.311e+2,,1.442e-12
228.087,8.008e+1,8.008e+1,,1.444e-12
228.092,1.351e+1,1.351e+1,,1.445e-12
228.097,2.071e+0,2.071e+0,,1.447e-12
228.102,2.883e-1,2.883e-1,,1.449e-12
228.107,3.645e-2,3.645e-2,,1.450e-12
228.112,4.186e-3,4.186e-3,,1.452e-12
228.117,4.366e-4,4.366e-4,,1.454e-12
228.122,4.137e-5,4.137e-5,,1.455e-12
228.127,3.560e-6,3.560e-6,,1.457e-12
228.132,2.783e-7,2.783e-7,,1.459e-12
228.137,1.976e-8,1.976e-8,,1.460e-12
228.142,1.274e-9,1.274e-9,,1.462e-12
229.836,8.911e-11,8.911e-11,,2.023e-12
229.841,1.449e-9,1.449e-9,,2.025e-12
229.846,2.143e-8,2.143e-8,,2.026e-12
229.851,2.884e-7,2.884e-7,,2.028e-12
229.856,3.531e-6,3.531e-6,,2.030e-12
229.861,3.934e-5,3.934e-5,,2.031e-12
229.866,3.987e-4,3.987e-4,,2.033e-12
229.871,3.676e-3,3.676e-3,,2.034e-12
229.876,3.084e-2,3.084e-2,,2.036e-12
229.881,2.354e-1,2.354e-1,,2.038e-12
229.886,1.634e+0,1.634e+0,,2.039e-12
229.891,1.032e+1,1.032e+1,,2.041e-12
229.896,5.934e+1,5.934e+1,,2.043e-12
229.901,3.103e+2,3.103e+2,,2.044e-12
229.906,1.476e+3,1.476e+3,,2.046e-12
229.911,6.390e+3,6.390e+3,,2.048e-12
229.916,2.516e+4,2.516e+4,,2.049e-12
229.921,9.016e+4,9.016e+4,,2.051e-12
229.926,2.939e+5,2.939e+5,,2.053e-12
229.931,8.716e+5,8.716e+5,,2.054e-12
229.936,2.352e+6,2.352e+6,,2.056e-12
229.941,5.773e+6,5.773e+6,,2.058e-12
229.946,1.289e+7,1.289e+7,,2.059e-12
229.951,2.620e+7,2.620e+7,,2.061e-12
229.956,4.843e+7,4.843e+7,,2.063e-12
229.961,8.145e+7,8.145e+7,,2.064e-12
229.965,1.153e+8,1.153e+8,,2.066e-12
229.970,1.636e+8,1.636e+8,,2.067e-12
229.975,2.112e+8,2.112e+8,,2.069e-12
229.980,2.480e+8,2.480e+8,,2.071e-12
229.985,2.650e+8,2.650e+8,,2.072e-12
229.990,2.576e+8,2.576e+8,,2.074e-12
229.995,2.278e+8,2.278e+8,,2.076e-12
230.000,1.833e+8,1.833e+8,,2.077e-12
230.005,1.342e+8,1.342e+8,,2.079e-12
230.010,8.935e+7,8.935e+7,,2.081e-12
230.015,5.414e+7,5.414e+7,,2.082e-12
