Wavelength (nm),Sum,Zn I (1.1e-01),Zn II (8.9e-01)
202.426,3.791e-4,,3.791e-4
202.431,6.978e-3,,6.978e-3
202.436,1.137e-1,,1.137e-1
202.441,1.640e+0,,1.640e+0
202.446,2.095e+1,,2.095e+1
202.451,2.369e+2,,2.369e+2
202.456,2.371e+3,,2.371e+3
202.461,2.100e+4,,2.100e+4
202.466,1.647e+5,,1.647e+5
202.471,1.144e+6,,1.144e+6
202.476,7.031e+6,,7.031e+6
202.481,3.826e+7,,3.826e+7
202.486,1.843e+8,,1.843e+8
202.491,7.860e+8,,7.860e+8
202.496,2.967e+9,,2.967e+9
202.501,9.916e+9,,9.916e+9
202.506,2.934e+10,,2.934e+10
202.511,7.683e+10,,7.683e+10
202.516,1.781e+11,,1.781e+11
202.521,3.656e+11,,3.656e+11
202.526,6.643e+11,,6.643e+11
202.531,1.069e+12,,1.069e+12
202.536,1.522e+12,,1.522e+12
202.541,1.918e+12,,1.918e+12
202.546,2.141e+12,,2.141e+12
202.551,2.115e+12,,2.115e+12
202.556,1.849e+12,,1.849e+12
202.561,1.432e+12,,1.432e+12
202.566,9.812e+11,,9.812e+11
202.571,5.953e+11,,5.953e+11
202.576,3.198e+11,,3.198e+11
202.581,1.520e+11,,1.520e+11
202.586,6.400e+10,,6.400e+10
202.591,2.385e+10,,2.385e+10
202.596,7.866e+9,,7.866e+9
202.601,2.297e+9,,2.297e+9
202.606,5.938e+8,,5.938e+8
202.611,1.359e+8,,1.359e+8
202.616,2.753e+7,,2.753e+7
202.621,4.938e+6,,4.938e+6
202.626,7.840e+5,,7.840e+5
202.631,1.102e+5,,1.102e+5
202.636,1.371e+4,,1.371e+4
202.641,1.510e+3,,1.510e+3
202.646,1.473e+2,,1.473e+2
202.651,1.271e+1,,1.271e+1
202.656,9.714e-1,,9.714e-1
202.661,6.571e-2,,6.571e-2
202.666,3.935e-3,,3.935e-3
202.671,2.086e-4,,2.086e-4
206.077,3.883e-4,,3.883e-4
206.082,6.607e-3,,6.607e-3
206.087,9.994e-2,,9.994e-2
206.092,1.344e+0,,1.344e+0
206.097,1.607e+1,,1.607e+1
206.102,1.708e+2,,1.708e+2
206.107,1.614e+3,,1.614e+3
206.112,1.356e+4,,1.356e+4
206.117,1.013e+5,,1.013e+5
206.122,6.729e+5,,6.729e+5
206.127,3.973e+6,,3.973e+6
206.132,2.085e+7,,2.085e+7
206.137,9.733e+7,,9.733e+7
206.142,4.038e+8,,4.038e+8
206.147,1.490e+9,,1.490e+9
206.152,4.885e+9,,4.885e+9
206.157,1.424e+10,,1.424e+10
206.162,3.693e+10,,3.693e+10
206.167,8.510e+10,,8.510e+10
206.172,1.744e+11,,1.744e+11
206.177,3.176e+11,,3.176e+11
206.182,5.144e+11,,5.144e+11
206.187,7.407e+11,,7.407e+11
206.192,9.482e+11,,9.482e+11
206.197,1.079e+12,,1.079e+12
206.202,1.092e+12,,1.092e+12
206.207,9.822e+11,,9.822e+11
206.212,7.856e+11,,7.856e+11
206.217,5.586e+11,,5.586e+11
206.222,3.531e+11,,3.531e+11
206.227,1.984e+11,,1.984e+11
206.232,9.916e+10,,9.916e+10
206.237,4.405e+10,,4.405e+10
206.242,1.740e+10,,1.740e+10
206.247,6.109e+9,,6.109e+9
206.252,1.907e+9,,1.907e+9
206.257,5.292e+8,,5.292e+8
206.262,1.306e+8,,1.306e+8
206.267,2.865e+7,,2.865e+7
206.272,5.587e+6,,5.587e+6
206.277,9.688e+5,,9.688e+5
206.282,1.494e+5,,1.494e+5
206.287,2.047e+4,,2.047e+4
206.292,2.494e+3,,2.494e+3
206.297,2.702e+2,,2.702e+2
206.302,2.602e+1,,2.602e+1
206.307,2.229e+0,,2.229e+0
206.312,1.714e-1,,1.714e-1
206.317,3.433e-2,,3.433e-2
206.322,2.600e-1,,2.600e-1
206.327,2.616e+0,,2.616e+0
206.332,2.348e+1,,2.348e+1
206.337,1.874e+2,,1.874e+2
206.342,1.330e+3,,1.330e+3
206.347,8.391e+3,,8.391e+3
206.352,4.709e+4,,4.709e+4
206.357,2.350e+5,,2.350e+5
206.362,1.043e+6,,1.043e+6
206.367,4.117e+6,,4.117e+6
206.372,1.445e+7,,1.445e+7
206.377,4.510e+7,,4.510e+7
206.382,1.252e+8,,1.252e+8
206.387,3.090e+8,,3.090e+8
206.392,6.782e+8,,6.782e+8
206.397,1.324e+9,,1.324e+9
206.402,2.298e+9,,2.298e+9
206.407,3.548e+9,,3.548e+9
206.412,4.870e+9,,4.870e+9
206.417,5.945e+9,,5.945e+9
206.422,6.454e+9,,6.454e+9
206.427,6.231e+9,,6.231e+9
206.432,5.349e+9,,5.349e+9
206.437,4.084e+9,,4.084e+9
206.442,2.773e+9,,2.773e+9
206.447,1.674e+9,,1.674e+9
206.452,8.988e+8,,8.988e+8
206.457,4.292e+8,,4.292e+8
206.462,1.822e+8,,1.822e+8
206.467,6.881e+7,,6.881e+7
206.472,2.310e+7,,2.310e+7
206.477,6.899e+6,,6.899e+6
206.482,1.832e+6,,1.832e+6
206.487,4.326e+5,,4.326e+5
206.492,9.085e+4,,9.085e+4
206.497,1.697e+4,,1.697e+4
206.502,2.818e+3,,2.818e+3
206.507,4.161e+2,,4.161e+2
206.512,5.465e+1,,5.465e+1
206.517,6.383e+0,,6.383e+0
206.522,6.629e-1,,6.629e-1
206.527,6.123e-2,,6.123e-2
206.532,5.029e-3,,5.029e-3
206.537,3.673e-4,,3.673e-4
206.542,2.386e-5,,2.386e-5
206.547,1.378e-6,,1.378e-6
209.868,2.625e-6,,2.625e-6
209.873,4.320e-5,,4.320e-5
209.878,6.347e-4,,6.347e-4
209.883,8.325e-3,,8.325e-3
209.888,9.748e-2,,9.748e-2
209.893,1.019e+0,,1.019e+0
209.898,9.513e+0,,9.513e+0
209.903,7.928e+1,,7.928e+1
209.908,5.899e+2,,5.899e+2
209.913,3.918e+3,,3.918e+3
209.918,2.324e+4,,2.324e+4
209.923,1.231e+5,,1.231e+5
209.928,5.817e+5,,5.817e+5
209.933,2.455e+6,,2.455e+6
209.938,9.252e+6,,9.252e+6
209.943,3.113e+7,,3.113e+7
209.948,9.350e+7,,9.350e+7
209.953,2.507e+8,,2.507e+8
209.958,6.003e+8,,6.003e+8
209.963,1.283e+9,,1.283e+9
209.968,2.449e+9,,2.449e+9
209.973,4.173e+9,,4.173e+9
209.978,6.348e+9,,6.348e+9
209.983,8.621e+9,,8.621e+9
209.988,1.045e+10,,1.045e+10
209.993,1.132e+10,,1.132e+10
209.998,1.094e+10,,1.094e+10
210.003,9.440e+9,,9.440e+9
210.008,7.273e+9,,7.273e+9
210.013,5.003e+9,,5.003e+9
210.018,3.072e+9,,3.072e+9
210.023,1.685e+9,,1.685e+9
210.028,8.246e+8,,8.246e+8
210.033,3.604e+8,,3.604e+8
210.038,1.406e+8,,1.406e+8
210.043,4.899e+7,,4.899e+7
210.048,1.524e+7,,1.524e+7
210.053,4.231e+6,,4.231e+6
210.058,1.049e+6,,1.049e+6
210.063,2.322e+5,,2.322e+5
210.068,4.589e+4,,4.589e+4
210.073,8.096e+3,,8.096e+3
210.078,1.275e+3,,1.275e+3
210.083,1.794e+2,,1.794e+2
210.088,2.252e+1,,2.252e+1
210.093,2.525e+0,,2.525e+0
210.098,2.527e-1,,2.527e-1
210.103,2.271e-2,,2.271e-2
210.108,3.421e-3,,3.421e-3
210.113,1.857e-2,,1.857e-2
210.118,1.876e-1,,1.876e-1
210.123,1.704e+0,,1.704e+0
210.128,1.382e+1,,1.382e+1
210.133,1.001e+2,,1.001e+2
210.138,6.473e+2,,6.473e+2
210.143,3.739e+3,,3.739e+3
210.148,1.929e+4,,1.929e+4
210.153,8.884e+4,,8.884e+4
210.158,3.654e+5,,3.654e+5
210.163,1.342e+6,,1.342e+6
210.168,4.404e+6,,4.404e+6
210.173,1.290e+7,,1.290e+7
210.178,3.375e+7,,3.375e+7
210.183,7.886e+7,,7.886e+7
210.188,1.645e+8,,1.645e+8
210.193,3.066e+8,,3.066e+8
210.198,5.101e+8,,5.101e+8
210.203,7.579e+8,,7.579e+8
210.208,1.006e+9,,1.006e+9
210.213,1.192e+9,,1.192e+9
210.218,1.261e+9,,1.261e+9
210.223,1.192e+9,,1.192e+9
210.228,1.006e+9,,1.006e+9
210.233,7.579e+8,,7.579e+8
210.238,5.101e+8,,5.101e+8
210.243,3.066e+8,,3.066e+8
210.248,1.645e+8,,1.645e+8
210.253,7.886e+7,,7.886e+7
210.258,3.375e+7,,3.375e+7
210.263,1.290e+7,,1.290e+7
210.268,4.404e+6,,4.404e+6
210.273,1.342e+6,,1.342e+6
210.278,3.654e+5,,3.654e+5
210.283,8.884e+4,,8.884e+4
210.288,1.929e+4,,1.929e+4
210.293,3.739e+3,,3.739e+3
210.298,6.473e+2,,6.473e+2
210.303,1.001e+2,,1.001e+2
210.308,1.382e+1,,1.382e+1
210.313,1.704e+0,,1.704e+0
210.318,1.876e-1,,1.876e-1
210.323,1.844e-2,,1.844e-2
210.328,1.619e-3,,1.619e-3
210.333,1.270e-4,,1.270e-4
210.338,8.893e-6,,8.893e-6
210.343,5.561e-7,,5.561e-7
213.729,1.940e-4,1.940e-4,
213.734,3.016e-3,3.016e-3,
213.739,4.205e-2,4.205e-2,
213.744,5.255e-1,5.255e-1,
213.749,5.886e+0,5.886e+0,
213.754,5.911e+1,5.911e+1,
213.759,5.321e+2,5.321e+2,
213.764,4.294e+3,4.294e+3,
213.769,3.106e+4,3.106e+4,
213.774,2.014e+5,2.014e+5,
213.779,1.171e+6,1.171e+6,
213.784,6.102e+6,6.102e+6,
213.789,2.851e+7,2.851e+7,
213.794,1.194e+8,1.194e+8,
213.799,4.482e+8,4.482e+8,
213.804,1.508e+9,1.508e+9,
213.809,4.550e+9,4.550e+9,
213.814,1.230e+10,1.230e+10,
213.819,2.983e+10,2.983e+10,
213.824,6.482e+10,6.482e+10,
213.829,1.263e+11,1.263e+11,
213.834,2.206e+11,2.206e+11,
213.839,3.453e+11,3.453e+11,
213.844,4.846e+11,4.846e+11,
213.849,6.096e+11,6.096e+11,
213.854,6.875e+11,6.875e+11,
213.859,6.951e+11,6.951e+11,
213.864,6.300e+11,6.300e+11,
213.869,5.118e+11,5.118e+11,
213.874,3.727e+11,3.727e+11,
213.879,2.434e+11,2.434e+11,
213.884,1.424e+11,1.424e+11,
213.889,7.472e+10,7.472e+10,
213.894,3.514e+10,3.514e+10,
213.899,1.482e+10,1.482e+10,
213.904,5.600e+9,5.600e+9,
213.909,1.897e+9,1.897e+9,
213.914,5.763e+8,5.763e+8,
213.919,1.569e+8,1.569e+8,
213.924,3.829e+7,3.829e+7,
213.929,8.379e+6,8.379e+6,
213.934,1.643e+6,1.643e+6,
213.939,2.889e+5,2.889e+5,
213.944,4.554e+4,4.554e+4,
213.949,6.435e+3,6.435e+3,
213.954,8.150e+2,8.150e+2,
213.959,9.254e+1,9.254e+1,
213.964,9.419e+0,9.419e+0,
213.969,8.594e-1,8.594e-1,
213.974,7.029e-2,7.029e-2,
213.979,5.154e-3,5.154e-3,
213.984,3.388e-4,3.388e-4,
250.046,1.550e-7,,1.550e-7
250.051,1.716e-6,,1.716e-6
250.056,1.753e-5,,1.753e-5
250.061,1.654e-4,,1.654e-4
250.066,1.441e-3,,1.441e-3
250.071,1.159e-2,,1.159e-2
250.076,8.604e-2,,8.604e-2
250.081,5.898e-1,,5.898e-1
250.086,3.732e+0,,3.732e+0
250.091,2.181e+1,,2.181e+1
250.096,1.176e+2,,1.176e+2
250.101,5.858e+2,,5.858e+2
250.106,2.693e+3,,2.693e+3
250.111,1.143e+4,,1.143e+4
250.116,4.481e+4,,4.481e+4
250.121,1.621e+5,,1.621e+5
250.126,5.415e+5,,5.415e+5
250.131,1.670e+6,,1.670e+6
250.136,4.755e+6,,4.755e+6
250.141,1.250e+7,,1.250e+7
250.146,3.033e+7,,3.033e+7
250.151,6.796e+7,,6.796e+7
250.156,1.406e+8,,1.406e+8
250.161,2.685e+8,,2.685e+8
250.166,4.733e+8,,4.733e+8
250.171,7.705e+8,,7.705e+8
250.176,1.158e+9,,1.158e+9
250.181,1.607e+9,,1.607e+9
250.186,2.058e+9,,2.058e+9
250.191,2.434e+9,,2.434e+9
250.196,2.657e+9,,2.657e+9
250.201,2.679e+9,,2.679e+9
250.206,2.493e+9,,2.493e+9
250.211,2.142e+9,,2.142e+9
250.216,1.699e+9,,1.699e+9
250.221,1.244e+9,,1.244e+9
250.226,8.413e+8,,8.413e+8
250.231,5.251e+8,,5.251e+8
250.236,3.026e+8,,3.026e+8
250.241,1.610e+8,,1.610e+8
250.246,7.910e+7,,7.910e+7
250.251,3.587e+7,,3.587e+7
250.256,1.502e+7,,1.502e+7
250.261,5.806e+6,,5.806e+6
250.266,2.072e+6,,2.072e+6
250.271,6.827e+5,,6.827e+5
250.276,2.077e+5,,2.077e+5
250.281,5.832e+4,,5.832e+4
250.286,1.512e+4,,1.512e+4
250.291,3.620e+3,,3.620e+3
250.296,7.999e+2,,7.999e+2
250.301,1.632e+2,,1.632e+2
250.306,3.074e+1,,3.074e+1
250.311,5.347e+0,,5.347e+0
250.316,8.585e-1,,8.585e-1
250.321,1.273e-1,,1.273e-1
250.326,1.742e-2,,1.742e-2
250.331,2.200e-3,,2.200e-3
250.336,2.567e-4,,2.567e-4
250.341,2.764e-5,,2.764e-5
250.346,2.748e-6,,2.748e-6
250.351,2.523e-7,,2.523e-7
255.643,2.366e-6,,2.366e-6
255.648,2.325e-5,,2.325e-5
255.653,2.116e-4,,2.116e-4
255.658,1.784e-3,,1.784e-3
255.663,1.393e-2,,1.393e-2
255.668,1.008e-1,,1.008e-1
255.673,6.761e-1,,6.761e-1
255.678,4.199e+0,,4.199e+0
255.683,2.416e+1,,2.416e+1
255.688,1.288e+2,,1.288e+2
255.693,6.362e+2,,6.362e+2
255.698,2.911e+3,,2.911e+3
255.703,1.234e+4,,1.234e+4
255.708,4.845e+4,,4.845e+4
255.713,1.763e+5,,1.763e+5
255.718,5.941e+5,,5.941e+5
255.723,1.855e+6,,1.855e+6
255.728,5.366e+6,,5.366e+6
255.733,1.438e+7,,1.438e+7
255.738,3.570e+7,,3.570e+7
255.743,8.212e+7,,8.212e+7
255.748,1.750e+8,,1.750e+8
255.753,3.454e+8,,3.454e+8
255.758,6.317e+8,,6.317e+8
255.763,1.070e+9,,1.070e+9
255.768,1.680e+9,,1.680e+9
255.773,2.443e+9,,2.443e+9
255.778,3.291e+9,,3.291e+9
255.783,4.108e+9,,4.108e+9
255.788,4.750e+9,,4.750e+9
255.793,5.088e+9,,5.088e+9
255.798,5.049e+9,,5.049e+9
255.803,4.642e+9,,4.642e+9
255.808,3.954e+9,,3.954e+9
255.813,3.120e+9,,3.120e+9
255.818,2.281e+9,,2.281e+9
255.823,1.545e+9,,1.545e+9
255.828,9.691e+8,,9.691e+8
255.833,5.633e+8,,5.633e+8
255.838,3.033e+8,,3.033e+8
255.843,1.513e+8,,1.513e+8
255.848,6.994e+7,,6.994e+7
255.853,2.995e+7,,2.995e+7
255.858,1.188e+7,,1.188e+7
255.863,4.365e+6,,4.365e+6
255.868,1.486e+6,,1.486e+6
255.873,4.688e+5,,4.688e+5
255.878,1.370e+5,,1.370e+5
255.883,3.708e+4,,3.708e+4
255.888,9.300e+3,,9.300e+3
255.893,2.161e+3,,2.161e+3
255.898,4.651e+2,,4.651e+2
255.903,9.274e+1,,9.274e+1
255.908,1.713e+1,,1.713e+1
255.913,2.932e+0,,2.932e+0
255.918,4.649e-1,,4.649e-1
255.923,6.830e-2,,6.830e-2
255.928,9.294e-3,,9.294e-3
255.933,1.172e-3,,1.172e-3
255.938,1.369e-4,,1.369e-4
255.943,1.481e-5,,1.481e-5
255.948,1.485e-6,,1.485e-6
256.908,5.630e-9,,5.630e-9
256.913,5.833e-8,,5.833e-8
256.918,5.603e-7,,5.603e-7
256.923,4.990e-6,,4.990e-6
256.928,4.120e-5,,4.120e-5
256.933,3.154e-4,,3.154e-4
256.938,2.238e-3,,2.238e-3
256.943,1.473e-2,,1.473e-2
256.948,8.984e-2,,8.984e-2
256.953,5.081e-1,,5.081e-1
256.958,2.664e+0,,2.664e+0
256.963,1.295e+1,,1.295e+1
256.968,5.838e+1,,5.838e+1
256.973,2.440e+2,,2.440e+2
256.978,9.452e+2,,9.452e+2
256.983,3.395e+3,,3.395e+3
256.988,1.131e+4,,1.131e+4
256.993,3.491e+4,,3.491e+4
256.998,9.993e+4,,9.993e+4
257.003,2.652e+5,,2.652e+5
257.008,6.526e+5,,6.526e+5
257.013,1.489e+6,,1.489e+6
257.018,3.149e+6,,3.149e+6
257.023,6.174e+6,,6.174e+6
257.028,1.122e+7,,1.122e+7
257.033,1.892e+7,,1.892e+7
257.038,2.956e+7,,2.956e+7
257.043,4.283e+7,,4.283e+7
257.048,5.754e+7,,5.754e+7
257.053,7.165e+7,,7.165e+7
257.058,8.273e+7,,8.273e+7
257.063,8.856e+7,,8.856e+7
257.068,8.789e+7,,8.789e+7
257.073,8.087e+7,,8.087e+7
257.078,6.899e+7,,6.899e+7
257.083,5.457e+7,,5.457e+7
257.088,4.001e+7,,4.001e+7
257.093,2.720e+7,,2.720e+7
257.098,1.715e+7,,1.715e+7
257.103,1.002e+7,,1.002e+7
257.108,5.429e+6,,5.429e+6
257.113,2.727e+6,,2.727e+6
257.118,1.270e+6,,1.270e+6
257.123,5.483e+5,,5.483e+5
257.128,2.195e+5,,2.195e+5
257.133,8.147e+4,,8.147e+4
257.138,2.803e+4,,2.803e+4
257.143,8.943e+3,,8.943e+3
257.148,2.645e+3,,2.645e+3
257.153,7.253e+2,,7.253e+2
257.158,1.844e+2,,1.844e+2
257.163,4.346e+1,,4.346e+1
257.168,9.498e+0,,9.498e+0
257.173,1.924e+0,,1.924e+0
257.178,3.615e-1,,3.615e-1
257.183,6.295e-2,,6.295e-2
257.188,1.016e-2,,1.016e-2
257.193,1.522e-3,,1.522e-3
257.198,2.112e-4,,2.112e-4
257.203,2.717e-5,,2.717e-5
257.208,3.242e-6,,3.242e-6
257.213,3.585e-7,,3.585e-7
257.218,3.677e-8,,3.677e-8
328.036,1.168e-6,1.168e-6,
328.041,7.101e-6,7.101e-6,
328.046,4.123e-5,4.123e-5,
328.051,2.285e-4,2.285e-4,
328.056,1.209e-3,1.209e-3,
328.061,6.109e-3,6.109e-3,
328.066,2.946e-2,2.946e-2,
328.071,1.356e-1,1.356e-1,
328.076,5.961e-1,5.961e-1,
328.081,2.501e+0,2.501e+0,
328.086,1.002e+1,1.002e+1,
328.091,3.830e+1,3.830e+1,
328.096,1.398e+2,1.398e+2,
328.101,4.872e+2,4.872e+2,
328.106,1.621e+3,1.621e+3,
328.111,5.148e+3,5.148e+3,
328.116,1.561e+4,1.561e+4,
328.121,4.518e+4,4.518e+4,
328.126,1.248e+5,1.248e+5,
328.131,3.293e+5,3.293e+5,
328.136,8.292e+5,8.292e+5,
328.141,1.993e+6,1.993e+6,
328.146,4.575e+6,4.575e+6,
328.151,1.002e+7,1.002e+7,
328.156,2.096e+7,2.096e+7,
328.161,4.186e+7,4.186e+7,
328.166,7.979e+7,7.979e+7,
328.171,1.452e+8,1.452e+8,
328.176,2.522e+8,2.522e+8,
328.181,4.183e+8,4.183e+8,
328.186,6.623e+8,6.623e+8,
328.191,1.001e+9,1.001e+9,
328.196,1.444e+9,1.444e+9,
328.201,1.989e+9,1.989e+9,
328.206,2.616e+9,2.616e+9,
328.211,3.284e+9,3.284e+9,
328.216,3.935e+9,3.935e+9,
328.221,4.502e+9,4.502e+9,
328.226,4.918e+9,4.918e+9,
328.231,5.127e+9,5.127e+9,
328.236,5.104e+9,5.104e+9,
328.241,4.850e+9,4.850e+9,
328.246,4.399e+9,4.399e+9,
328.251,3.810e+9,3.810e+9,
328.256,3.150e+9,3.150e+9,
328.261,2.486e+9,2.486e+9,
328.266,1.873e+9,1.873e+9,
328.271,1.347e+9,1.347e+9,
328.276,9.250e+8,9.250e+8,
328.281,6.064e+8,6.064e+8,
328.286,3.795e+8,3.795e+8,
328.291,2.267e+8,2.267e+8,
328.296,1.293e+8,1.293e+8,
328.301,7.039e+7,7.039e+7,
328.306,3.659e+7,3.659e+7,
328.311,1.815e+7,1.815e+7,
328.316,8.600e+6,8.600e+6,
328.321,3.889e+6,3.889e+6,
328.326,1.679e+6,1.679e+6,
328.331,6.919e+5,6.919e+5,
328.336,2.722e+5,2.722e+5,
328.341,1.022e+5,1.022e+5,
328.346,3.666e+4,3.666e+4,
328.351,1.255e+4,1.255e+4,
328.356,4.101e+3,4.101e+3,
328.361,1.279e+3,1.279e+3,
328.366,3.810e+2,3.810e+2,
328.371,1.083e+2,1.083e+2,
328.376,2.940e+1,2.940e+1,
328.381,7.618e+0,7.618e+0,
328.386,1.884e+0,1.884e+0,
328.391,4.450e-1,4.450e-1,
328.396,1.003e-1,1.003e-1,
328.401,2.159e-2,2.159e-2,
328.406,4.435e-3,4.435e-3,
328.411,8.698e-4,8.698e-4,
328.416,1.629e-4,1.629e-4,
328.421,2.911e-5,2.911e-5,
328.426,4.968e-6,4.968e-6,
328.431,8.092e-7,8.092e-7,
330.062,5.707e-6,5.707e-6,
330.067,3.364e-5,3.364e-5,
330.072,1.894e-4,1.894e-4,
330.077,1.019e-3,1.019e-3,
330.082,5.234e-3,5.234e-3,
330.087,2.568e-2,2.568e-2,
330.092,1.204e-1,1.204e-1,
330.097,5.390e-1,5.390e-1,
330.102,2.305e+0,2.305e+0,
330.107,9.417e+0,9.417e+0,
330.112,3.675e+1,3.675e+1,
330.117,1.370e+2,1.370e+2,
330.122,4.876e+2,4.876e+2,
330.127,1.658e+3,1.658e+3,
330.132,5.387e+3,5.387e+3,
330.137,1.671e+4,1.671e+4,
330.142,4.953e+4,4.953e+4,
330.147,1.402e+5,1.402e+5,
330.152,3.792e+5,3.792e+5,
330.157,9.795e+5,9.795e+5,
330.162,2.417e+6,2.417e+6,
330.167,5.696e+6,5.696e+6,
330.172,1.282e+7,1.282e+7,
330.177,2.758e+7,2.758e+7,
330.182,5.665e+7,5.665e+7,
330.187,1.112e+8,1.112e+8,
330.192,2.084e+8,2.084e+8,
330.197,3.732e+8,3.732e+8,
330.202,6.385e+8,6.385e+8,
330.207,1.044e+9,1.044e+9,
330.212,1.631e+9,1.631e+9,
330.217,2.434e+9,2.434e+9,
330.222,3.474e+9,3.474e+9,
330.227,4.740e+9,4.740e+9,
330.232,6.187e+9,6.187e+9,
330.237,7.729e+9,7.729e+9,
330.242,9.247e+9,9.247e+9,
330.247,1.061e+10,1.061e+10,
330.252,1.168e+10,1.168e+10,
330.257,1.236e+10,1.236e+10,
330.262,1.261e+10,1.261e+10,
330.267,1.242e+10,1.242e+10,
330.272,1.186e+10,1.186e+10,
330.277,1.101e+10,1.101e+10,
330.282,9.975e+9,9.975e+9,
330.287,8.840e+9,8.840e+9,
330.292,7.682e+9,7.682e+9,
330.297,6.552e+9,6.552e+9,
330.302,5.482e+9,5.482e+9,
330.307,4.490e+9,4.490e+9,
330.312,3.591e+9,3.591e+9,
330.317,2.794e+9,2.794e+9,
330.322,2.108e+9,2.108e+9,
330.327,1.538e+9,1.538e+9,
330.332,1.082e+9,1.082e+9,
330.337,7.317e+8,7.317e+8,
330.342,4.753e+8,4.753e+8,
330.347,2.961e+8,2.961e+8,
330.352,1.767e+8,1.767e+8,
330.357,1.009e+8,1.009e+8,
330.362,5.515e+7,5.515e+7,
330.367,2.882e+7,2.882e+7,
330.372,1.439e+7,1.439e+7,
330.377,6.872e+6,6.872e+6,
330.382,3.135e+6,3.135e+6,
330.387,1.367e+6,1.367e+6,
330.392,5.692e+5,5.692e+5,
330.397,2.265e+5,2.265e+5,
330.402,8.607e+4,8.607e+4,
330.407,3.125e+4,3.125e+4,
330.412,1.084e+4,1.084e+4,
330.417,3.592e+3,3.592e+3,
330.422,1.137e+3,1.137e+3,
330.427,3.436e+2,3.436e+2,
330.432,9.924e+1,9.924e+1,
330.437,2.737e+1,2.737e+1,
330.442,7.213e+0,7.213e+0,
330.447,1.815e+0,1.815e+0,
330.452,4.365e-1,4.365e-1,
330.457,1.002e-1,1.002e-1,
330.462,2.199e-2,2.199e-2,
330.467,4.607e-3,4.607e-3,
330.472,9.221e-4,9.221e-4,
330.477,1.763e-4,1.763e-4,
330.482,3.219e-5,3.219e-5,
330.487,5.615e-6,5.615e-6,
330.492,9.356e-7,9.356e-7,
334.298,2.208e-6,2.208e-6,
334.303,1.325e-5,1.325e-5,
334.308,7.603e-5,7.603e-5,
334.313,4.172e-4,4.172e-4,
334.318,2.190e-3,2.190e-3,
334.323,1.099e-2,1.099e-2,
334.328,5.274e-2,5.274e-2,
334.333,2.421e-1,2.421e-1,
334.338,1.062e+0,1.062e+0,
334.343,4.459e+0,4.459e+0,
334.348,1.790e+1,1.790e+1,
334.353,6.870e+1,6.870e+1,
334.358,2.522e+2,2.522e+2,
334.363,8.852e+2,8.852e+2,
334.368,2.972e+3,2.972e+3,
334.373,9.539e+3,9.539e+3,
334.378,2.928e+4,2.928e+4,
334.383,8.597e+4,8.597e+4,
334.388,2.413e+5,2.413e+5,
334.393,6.479e+5,6.479e+5,
334.398,1.664e+6,1.664e+6,
334.403,4.084e+6,4.084e+6,
334.408,9.589e+6,9.589e+6,
334.413,2.153e+7,2.153e+7,
334.418,4.623e+7,4.623e+7,
334.423,9.492e+7,9.492e+7,
334.428,1.864e+8,1.864e+8,
334.433,3.500e+8,3.500e+8,
334.438,6.285e+8,6.285e+8,
334.443,1.079e+9,1.079e+9,
334.448,1.772e+9,1.772e+9,
334.453,2.783e+9,2.783e+9,
334.458,4.180e+9,4.180e+9,
334.463,6.004e+9,6.004e+9,
334.468,8.247e+9,8.247e+9,
334.473,1.083e+10,1.083e+10,
334.478,1.361e+10,1.361e+10,
334.483,1.636e+10,1.636e+10,
334.488,1.881e+10,1.881e+10,
334.493,2.070e+10,2.070e+10,
334.498,2.181e+10,2.181e+10,
334.503,2.201e+10,2.201e+10,
334.508,2.131e+10,2.131e+10,
334.513,1.983e+10,1.983e+10,
334.518,1.779e+10,1.779e+10,
334.523,1.546e+10,1.546e+10,
334.528,1.310e+10,1.310e+10,
334.533,1.093e+10,1.093e+10,
334.538,9.075e+9,9.075e+9,
334.543,7.588e+9,7.588e+9,
334.548,6.442e+9,6.442e+9,
334.553,5.562e+9,5.562e+9,
334.558,4.861e+9,4.861e+9,
334.563,4.254e+9,4.254e+9,
334.568,3.687e+9,3.687e+9,
334.573,3.130e+9,3.130e+9,
334.578,2.582e+9,2.582e+9,
334.583,2.059e+9,2.059e+9,
334.588,1.579e+9,1.579e+9,
334.593,1.164e+9,1.164e+9,
334.598,8.218e+8,8.218e+8,
334.603,5.558e+8,5.558e+8,
334.608,3.599e+8,3.599e+8,
334.613,2.229e+8,2.229e+8,
334.618,1.321e+8,1.321e+8,
334.623,7.489e+7,7.489e+7,
334.628,4.060e+7,4.060e+7,
334.633,2.105e+7,2.105e+7,
334.638,1.044e+7,1.044e+7,
334.643,4.951e+6,4.951e+6,
334.648,2.245e+6,2.245e+6,
334.653,9.739e+5,9.739e+5,
334.658,4.039e+5,4.039e+5,
334.663,1.602e+5,1.602e+5,
334.668,6.078e+4,6.078e+4,
334.673,2.205e+4,2.205e+4,
334.678,7.648e+3,7.648e+3,
334.683,2.537e+3,2.537e+3,
334.688,8.049e+2,8.049e+2,
334.693,2.442e+2,2.442e+2,
334.698,7.085e+1,7.085e+1,
334.703,1.966e+1,1.966e+1,
334.708,5.216e+0,5.216e+0,
334.713,1.324e+0,1.324e+0,
334.718,3.212e-1,3.212e-1,
334.723,7.454e-2,7.454e-2,
