Wavelength (nm),Au I
212.09,8.556e-21
212.11,7.993e-19
212.13,6.369e-17
212.14,5.355e-16
212.16,3.361e-14
212.18,1.798e-12
212.20,8.208e-11
212.21,5.224e-10
212.23,1.878e-8
212.25,5.756e-7
212.27,1.505e-5
212.28,7.248e-5
212.30,1.492e-3
212.32,2.620e-2
212.34,3.924e-1
212.35,1.430e+0
212.37,1.687e+1
212.39,1.697e+2
212.41,1.456e+3
212.42,4.016e+3
212.44,2.713e+4
212.46,1.563e+5
212.48,7.680e+5
212.49,1.604e+6
212.51,6.206e+6
212.53,2.048e+7
212.55,5.765e+7
212.56,9.111e+7
212.58,2.020e+8
212.60,3.818e+8
212.62,6.155e+8
212.63,7.362e+8
212.65,9.348e+8
212.67,1.012e+9
212.69,9.348e+8
212.71,7.362e+8
212.72,6.155e+8
212.74,3.818e+8
212.76,2.020e+8
212.78,9.111e+7
212.79,5.765e+7
212.81,2.048e+7
212.83,6.206e+6
212.85,1.604e+6
212.86,7.680e+5
212.88,1.563e+5
212.90,2.713e+4
212.92,4.016e+3
212.93,1.456e+3
212.95,1.697e+2
212.97,1.687e+1
212.99,1.430e+0
213.00,3.924e-1
213.02,2.620e-2
213.04,1.492e-3
213.06,7.248e-5
213.07,1.505e-5
213.09,5.756e-7
213.11,1.878e-8
213.13,5.224e-10
213.14,8.208e-11
213.16,1.798e-12
213.18,3.361e-14
213.20,5.355e-16
213.21,6.369e-17
234.64,9.839e-19
234.66,5.201e-17
234.68,2.414e-15
234.69,1.566e-14
234.71,5.979e-13
234.73,2.005e-11
234.75,5.901e-10
234.77,1.525e-8
234.78,7.384e-8
234.80,1.570e-6
234.82,2.932e-5
234.84,4.806e-4
234.85,1.853e-3
234.87,2.499e-2
234.89,2.959e-1
234.91,3.077e+0
234.92,9.449e+0
234.94,8.083e+1
234.96,6.071e+2
234.98,4.003e+3
234.99,9.791e+3
235.01,5.312e+4
235.03,2.531e+5
235.05,1.058e+6
235.06,2.062e+6
235.08,7.095e+6
235.10,2.144e+7
235.12,5.687e+7
235.13,8.821e+7
235.15,1.925e+8
235.17,3.690e+8
235.19,6.208e+8
235.20,7.669e+8
235.22,1.062e+9
235.24,1.290e+9
235.26,1.377e+9
235.27,1.355e+9
235.29,1.190e+9
235.31,9.171e+8
235.33,6.208e+8
235.35,3.690e+8
235.36,2.709e+8
235.38,1.325e+8
235.40,5.687e+7
235.42,2.144e+7
235.43,1.253e+7
235.45,3.887e+6
235.47,1.058e+6
235.49,2.531e+5
235.50,1.178e+5
235.52,2.318e+4
235.54,4.003e+3
235.56,6.071e+2
235.57,2.252e+2
235.59,2.809e+1
235.61,3.077e+0
235.63,2.959e-1
235.64,8.741e-2
235.66,6.917e-3
235.68,4.806e-4
235.70,2.932e-5
235.71,6.896e-6
235.73,3.461e-7
235.75,1.525e-8
235.77,5.901e-10
235.78,1.105e-10
235.80,3.519e-12
235.82,9.835e-14
235.84,2.414e-15
235.85,3.601e-16
242.17,2.939e-15
242.18,1.922e-14
242.20,7.501e-13
242.22,2.591e-11
242.24,7.919e-10
242.25,4.182e-9
242.27,1.064e-7
242.29,2.397e-6
242.31,4.778e-5
242.32,2.038e-4
242.34,3.382e-3
242.36,4.968e-2
242.38,6.458e-1
242.39,2.224e+0
242.41,2.407e+1
242.43,2.306e+2
242.45,1.955e+3
242.46,5.437e+3
242.48,3.838e+4
242.50,2.398e+5
242.52,1.326e+6
242.53,2.977e+6
242.55,1.370e+7
242.57,5.583e+7
242.59,2.013e+8
242.60,3.651e+8
242.62,1.096e+9
242.64,2.912e+9
242.66,6.847e+9
242.67,1.003e+10
242.69,1.963e+10
242.71,3.402e+10
242.73,5.216e+10
242.75,7.079e+10
242.76,7.877e+10
242.78,8.901e+10
242.80,8.901e+10
242.82,7.877e+10
242.83,7.079e+10
242.85,5.216e+10
242.87,3.402e+10
242.89,1.963e+10
242.90,1.425e+10
242.92,6.847e+9
242.94,2.912e+9
242.96,1.096e+9
242.97,6.423e+8
242.99,2.013e+8
243.01,5.583e+7
243.03,1.370e+7
243.04,6.486e+6
243.06,1.326e+6
243.08,2.398e+5
243.10,3.838e+4
243.11,1.467e+4
243.13,1.955e+3
243.15,2.306e+2
243.17,2.407e+1
243.18,7.430e+0
243.20,6.458e-1
243.22,4.968e-2
243.24,3.382e-3
243.25,8.430e-4
243.27,4.778e-5
243.29,2.397e-6
243.31,1.064e-7
243.33,4.182e-9
243.34,7.919e-10
243.36,2.591e-11
243.38,7.501e-13
243.40,1.922e-14
243.41,2.939e-15
263.47,9.500e-18
263.49,3.013e-16
263.50,1.632e-15
263.52,4.435e-14
263.54,1.087e-12
263.56,2.402e-11
263.57,1.087e-10
263.59,2.057e-9
263.61,3.513e-8
263.63,5.411e-7
263.64,2.043e-6
263.66,2.695e-5
263.68,3.208e-4
263.70,3.443e-3
263.72,3.333e-2
263.73,9.977e-2
263.75,8.274e-1
263.77,6.189e+0
263.79,4.175e+1
263.80,1.043e+2
263.82,6.029e+2
263.84,3.143e+3
263.86,1.477e+4
263.87,3.082e+4
263.89,1.241e+5
263.91,4.508e+5
263.93,1.477e+6
263.94,2.572e+6
263.96,7.218e+6
263.98,1.827e+7
264.00,4.171e+7
264.01,6.063e+7
264.03,1.186e+8
264.05,2.092e+8
264.07,3.328e+8
264.08,4.038e+8
264.10,5.503e+8
264.12,6.765e+8
264.14,7.500e+8
264.15,7.597e+8
264.17,7.215e+8
264.19,6.181e+8
264.21,4.775e+8
264.22,4.038e+8
264.24,2.672e+8
264.26,1.595e+8
264.28,8.589e+7
264.30,4.171e+7
264.31,2.796e+7
264.33,1.163e+7
264.35,4.364e+6
264.37,1.477e+6
264.38,8.266e+5
264.40,2.396e+5
264.42,6.265e+4
264.44,1.477e+4
264.45,6.902e+3
264.47,1.394e+3
264.49,2.541e+2
264.51,4.175e+1
264.52,1.628e+1
264.54,2.292e+0
264.56,2.910e-1
264.58,3.333e-2
264.59,1.085e-2
264.61,1.065e-3
264.63,9.419e-5
264.65,7.517e-6
264.66,2.043e-6
264.68,1.397e-7
264.70,8.611e-9
264.72,4.789e-10
264.73,1.087e-10
264.75,5.176e-12
264.77,2.224e-13
264.79,8.620e-15
264.80,1.632e-15
266.91,2.998e-15
266.93,8.703e-14
266.95,2.285e-12
266.97,5.426e-11
266.98,2.546e-10
267.00,5.199e-9
267.02,9.600e-8
267.04,1.603e-6
267.05,6.309e-6
267.07,9.061e-5
267.09,1.177e-3
267.11,1.382e-2
267.13,1.468e-1
267.14,4.608e-1
267.16,4.209e+0
267.18,3.477e+1
267.20,2.598e+2
267.21,6.838e+2
267.23,4.393e+3
267.25,2.553e+4
267.27,1.341e+5
267.28,2.961e+5
267.30,1.338e+6
267.32,5.467e+6
267.34,2.020e+7
267.35,3.740e+7
267.37,1.189e+8
267.39,3.417e+8
267.41,8.881e+8
267.42,1.379e+9
267.44,3.082e+9
267.46,6.231e+9
267.48,1.139e+10
267.49,1.483e+10
267.51,2.332e+10
267.53,3.315e+10
267.55,4.263e+10
267.56,4.655e+10
267.58,5.147e+10
267.60,5.147e+10
267.62,4.655e+10
267.63,4.263e+10
267.65,3.315e+10
267.67,2.332e+10
267.69,1.483e+10
267.71,8.531e+9
267.72,6.231e+9
267.74,3.082e+9
267.76,1.379e+9
267.78,5.578e+8
267.79,3.417e+8
267.81,1.189e+8
267.83,3.740e+7
267.85,1.064e+7
267.86,5.467e+6
267.88,1.338e+6
267.90,2.961e+5
267.92,5.925e+4
267.93,2.553e+4
267.95,4.393e+3
267.97,6.838e+2
267.99,9.625e+1
268.00,3.477e+1
268.02,4.209e+0
268.04,4.608e-1
268.06,4.562e-2
268.07,1.382e-2
268.09,1.177e-3
268.11,9.061e-5
268.13,6.309e-6
268.14,1.603e-6
268.16,9.600e-8
268.18,5.199e-9
268.20,2.546e-10
268.21,5.426e-11
268.23,2.285e-12
268.25,8.703e-14
268.27,2.998e-15
274.14,9.252e-16
274.16,2.365e-14
274.17,1.154e-13
274.19,2.557e-12
274.21,5.149e-11
274.23,9.429e-10
274.24,3.893e-9
274.26,6.179e-8
274.28,8.915e-7
274.30,1.169e-5
274.31,4.086e-5
274.33,4.645e-4
274.35,4.801e-3
274.37,4.511e-2
274.38,1.334e-1
274.40,1.086e+0
274.42,8.042e+0
274.44,5.412e+1
274.45,1.355e+2
274.47,7.903e+2
274.49,4.191e+3
274.51,2.020e+4
274.53,8.853e+4
274.54,1.788e+5
274.56,6.792e+5
274.58,2.345e+6
274.60,7.362e+6
274.61,1.259e+7
274.63,3.425e+7
274.65,8.470e+7
274.67,1.905e+8
274.68,2.756e+8
274.70,5.371e+8
274.72,9.516e+8
274.74,1.533e+9
274.75,1.877e+9
274.77,2.620e+9
274.79,3.325e+9
274.81,3.836e+9
274.82,3.976e+9
274.84,3.976e+9
274.86,3.614e+9
274.88,2.987e+9
274.89,2.620e+9
274.91,1.877e+9
274.93,1.222e+9
274.95,7.235e+8
274.96,5.371e+8
274.98,2.756e+8
275.00,1.285e+8
275.02,5.450e+7
275.04,2.101e+7
275.05,1.259e+7
275.07,4.205e+6
275.09,1.277e+6
275.11,3.527e+5
275.12,1.788e+5
275.14,4.280e+4
275.16,9.311e+3
275.18,1.842e+3
275.19,7.903e+2
275.21,1.355e+2
275.23,2.111e+1
275.25,2.991e+0
275.26,1.086e+0
275.28,1.334e-1
275.30,1.489e-2
275.32,1.511e-3
275.33,4.645e-4
275.35,4.086e-5
275.37,3.267e-6
275.39,2.375e-7
275.40,6.179e-8
275.42,3.893e-9
275.44,2.230e-10
275.46,1.161e-11
275.47,2.557e-12
275.49,1.154e-13
275.51,4.734e-15
311.51,9.021e-15
311.53,1.492e-13
311.54,5.901e-13
311.56,8.736e-12
311.58,1.201e-10
311.60,1.534e-9
311.61,5.333e-9
311.63,6.097e-8
311.65,6.475e-7
311.67,6.386e-6
311.68,1.951e-5
311.70,1.722e-4
311.72,1.413e-3
311.74,1.076e-2
311.75,2.889e-2
311.77,1.970e-1
311.79,1.247e+0
311.81,7.338e+0
311.82,1.731e+1
311.84,9.116e+1
311.86,4.458e+2
311.88,2.025e+3
311.90,8.547e+3
311.91,1.708e+4
311.93,6.450e+4
311.95,2.263e+5
311.97,7.374e+5
311.98,1.295e+6
312.00,3.777e+6
312.02,1.023e+7
312.04,2.575e+7
312.05,3.974e+7
312.07,8.953e+7
312.09,1.873e+8
312.11,3.641e+8
312.12,4.937e+8
312.14,8.589e+8
312.16,1.388e+9
312.18,2.083e+9
312.19,2.482e+9
312.21,3.335e+9
312.23,4.162e+9
312.25,4.825e+9
312.26,5.053e+9
312.28,5.243e+9
312.30,5.053e+9
312.32,4.523e+9
312.33,4.162e+9
312.35,3.335e+9
312.37,2.482e+9
312.39,1.716e+9
312.40,1.388e+9
312.42,8.589e+8
312.44,4.937e+8
312.46,2.636e+8
312.48,1.307e+8
312.49,8.953e+7
312.51,3.974e+7
312.53,1.639e+7
312.55,6.275e+6
312.56,3.777e+6
312.58,1.295e+6
312.60,4.123e+5
312.62,1.219e+5
312.63,6.450e+4
312.65,1.708e+4
312.67,4.199e+3
312.69,9.591e+2
312.70,4.458e+2
312.72,9.116e+1
312.74,1.731e+1
312.76,3.053e+0
312.77,1.247e+0
312.79,1.970e-1
312.81,2.889e-2
312.83,3.935e-3
312.84,1.413e-3
312.86,1.722e-4
312.88,1.951e-5
312.90,2.052e-6
312.91,6.475e-7
312.93,6.097e-8
312.95,5.333e-9
312.97,4.333e-10
312.98,1.201e-10
313.00,8.736e-12
313.02,5.901e-13
313.04,3.703e-14
331.20,2.817e-16
331.21,1.066e-15
331.23,1.454e-14
331.25,1.857e-13
331.27,2.221e-12
331.28,7.498e-12
331.30,8.134e-11
331.32,8.266e-10
331.34,7.869e-9
331.35,2.369e-8
331.37,2.045e-7
331.39,1.653e-6
331.41,1.252e-5
331.42,3.363e-5
331.44,2.310e-4
331.46,1.486e-3
331.48,8.955e-3
331.49,2.145e-2
331.51,1.172e-1
331.53,6.000e-1
331.55,2.877e+0
331.56,6.147e+0
331.58,2.673e+1
331.60,1.088e+2
331.62,4.152e+2
331.63,7.914e+2
331.65,2.738e+3
331.67,8.871e+3
331.69,2.693e+4
331.70,4.578e+4
331.72,1.260e+5
331.74,3.248e+5
331.76,7.845e+5
331.78,1.775e+6
331.79,2.605e+6
331.81,5.344e+6
331.83,1.027e+7
331.85,1.848e+7
331.86,2.420e+7
331.88,3.949e+7
331.90,6.038e+7
331.92,8.648e+7
331.93,1.010e+8
331.95,1.311e+8
331.97,1.595e+8
331.99,1.818e+8
332.00,1.894e+8
332.02,1.957e+8
332.04,1.894e+8
332.06,1.717e+8
332.07,1.595e+8
332.09,1.311e+8
332.11,1.010e+8
332.13,7.286e+7
332.14,6.038e+7
332.16,3.949e+7
332.18,2.420e+7
332.20,1.389e+7
332.21,1.027e+7
332.23,5.344e+6
332.25,2.605e+6
332.27,1.190e+6
332.28,7.845e+5
332.30,3.248e+5
332.32,1.260e+5
332.34,4.578e+4
332.36,1.558e+4
332.37,8.871e+3
332.39,2.738e+3
332.41,7.914e+2
332.43,2.143e+2
332.44,1.088e+2
332.46,2.673e+1
332.48,6.147e+0
332.50,1.325e+0
332.51,6.000e-1
332.53,1.172e-1
332.55,2.145e-2
332.57,3.678e-3
332.58,1.486e-3
332.60,2.310e-4
332.62,3.363e-5
332.64,4.588e-6
332.65,1.653e-6
332.67,2.045e-7
332.69,2.369e-8
332.71,2.571e-9
332.72,8.266e-10
332.74,8.134e-11
332.76,7.498e-12
332.78,6.475e-13
332.79,1.857e-13
332.81,1.454e-14
378.69,8.208e-15
378.71,7.776e-14
378.72,2.349e-13
378.74,2.065e-12
378.76,1.726e-11
378.78,1.373e-10
378.79,3.800e-10
378.81,2.804e-9
378.83,1.969e-8
378.85,1.315e-7
378.87,8.350e-7
378.88,2.065e-6
378.90,1.217e-5
378.92,6.824e-5
378.94,3.639e-4
378.95,8.248e-4
378.97,4.081e-3
378.99,1.921e-2
379.01,8.599e-2
379.02,1.786e-1
379.04,7.418e-1
379.06,2.931e+0
379.08,1.102e+1
379.09,2.097e+1
379.11,7.311e+1
379.13,2.426e+2
379.15,7.655e+2
379.16,1.335e+3
379.18,3.907e+3
379.20,1.088e+4
379.22,2.883e+4
379.23,4.606e+4
379.25,1.132e+5
379.27,2.648e+5
379.29,5.889e+5
379.30,8.621e+5
379.32,1.779e+6
379.34,3.493e+6
379.36,6.522e+6
379.38,1.159e+7
379.39,1.516e+7
379.41,2.498e+7
379.43,3.916e+7
379.45,5.841e+7
379.46,7.001e+7
379.48,9.688e+7
379.50,1.275e+8
379.52,1.597e+8
379.53,1.754e+8
379.55,2.037e+8
379.57,2.251e+8
379.59,2.367e+8
379.60,2.381e+8
379.62,2.323e+8
379.64,2.155e+8
379.66,1.902e+8
379.67,1.754e+8
379.69,1.436e+8
379.71,1.118e+8
379.73,8.287e+7
379.74,7.001e+7
379.76,4.813e+7
379.78,3.147e+7
379.80,1.958e+7
379.81,1.516e+7
379.83,8.748e+6
379.85,4.803e+6
379.87,2.508e+6
379.88,1.779e+6
379.90,8.621e+5
379.92,3.974e+5
379.94,1.742e+5
379.96,7.267e+4
379.97,4.606e+4
379.99,1.783e+4
380.01,6.562e+3
380.03,2.298e+3
380.04,1.335e+3
380.06,4.336e+2
380.08,1.340e+2
380.10,3.940e+1
380.11,2.097e+1
380.13,5.719e+0
380.15,1.484e+0
380.17,3.662e-1
380.18,1.786e-1
380.20,4.089e-2
380.22,8.909e-3
380.24,1.846e-3
380.25,8.248e-4
380.27,1.586e-4
380.29,2.900e-5
380.31,5.045e-6
380.32,2.065e-6
380.34,3.334e-7
380.36,5.119e-8
380.38,7.477e-9
380.39,2.804e-9
380.41,3.800e-10
380.43,4.899e-11
380.45,6.008e-12
380.46,2.065e-12
380.48,2.349e-13
405.55,1.258e-13
405.57,9.966e-13
405.58,2.759e-12
405.60,2.048e-11
405.62,1.455e-10
405.64,9.893e-10
405.65,2.538e-9
405.67,1.617e-8
405.69,9.862e-8
405.71,5.759e-7
405.72,1.369e-6
405.74,7.488e-6
405.76,3.921e-5
405.78,1.966e-4
405.79,4.330e-4
405.81,2.033e-3
405.83,9.142e-3
405.85,3.935e-2
405.86,8.032e-2
405.88,3.238e-1
405.90,1.250e+0
405.92,4.619e+0
405.93,8.736e+0
405.95,3.024e+1
405.97,1.002e+2
405.99,3.180e+2
406.00,5.572e+2
406.02,1.656e+3
406.04,4.712e+3
406.06,1.284e+4
406.08,3.347e+4
406.09,5.318e+4
406.11,1.299e+5
406.13,3.038e+5
406.15,6.803e+5
406.16,1.001e+6
406.18,2.100e+6
406.20,4.218e+6
406.22,8.108e+6
406.23,1.106e+7
406.25,1.991e+7
406.27,3.433e+7
406.29,5.666e+7
406.30,7.162e+7
406.32,1.107e+8
406.34,1.639e+8
406.36,2.322e+8
406.37,2.720e+8
406.39,3.610e+8
406.41,4.587e+8
406.43,5.581e+8
406.44,6.056e+8
406.46,6.902e+8
406.48,7.530e+8
406.50,7.866e+8
406.51,7.909e+8
406.53,7.738e+8
406.55,7.249e+8
406.57,6.501e+8
406.58,6.056e+8
406.60,5.088e+8
406.62,4.092e+8
406.64,3.150e+8
406.66,2.322e+8
406.67,1.961e+8
406.69,1.354e+8
406.71,8.953e+7
406.73,5.666e+7
406.74,4.435e+7
406.76,2.629e+7
406.78,1.492e+7
406.80,8.108e+6
406.81,5.880e+6
406.83,2.993e+6
406.85,1.458e+6
406.87,6.803e+5
406.88,4.571e+5
406.90,1.998e+5
406.92,8.357e+4
406.94,3.347e+4
406.95,2.084e+4
406.97,7.819e+3
406.99,2.809e+3
407.01,9.658e+2
407.02,5.572e+2
407.04,1.795e+2
407.06,5.535e+1
407.08,1.634e+1
407.09,8.736e+0
407.11,2.416e+0
407.13,6.397e-1
407.15,1.622e-1
407.17,3.935e-2
407.18,1.907e-2
407.20,4.335e-3
407.22,9.435e-4
407.24,1.966e-4
407.25,8.827e-5
407.27,1.723e-5
407.29,3.219e-6
407.31,5.759e-7
407.32,2.396e-7
407.34,4.015e-8
407.36,6.441e-9
407.38,9.893e-10
407.39,3.814e-10
407.41,5.487e-11
407.43,7.558e-12
407.45,9.966e-13
478.18,5.362e-12
478.20,2.914e-11
478.21,6.713e-11
478.23,3.480e-10
478.25,1.748e-9
478.27,8.513e-9
478.28,1.857e-8
478.30,8.625e-8
478.32,3.883e-7
478.34,1.694e-6
478.35,3.498e-6
478.37,1.456e-5
478.39,5.874e-5
478.41,2.297e-4
478.42,4.488e-4
478.44,1.674e-3
478.46,6.053e-3
478.48,2.121e-2
478.49,3.923e-2
478.51,1.311e-1
478.53,4.248e-1
478.55,1.334e+0
478.56,2.336e+0
478.58,6.996e+0
478.60,2.031e+1
478.62,5.714e+1
478.64,1.558e+2
478.65,2.542e+2
478.67,6.613e+2
478.69,1.667e+3
478.71,4.074e+3
478.72,6.293e+3
478.74,1.467e+4
478.76,3.314e+4
478.78,7.255e+4
478.79,1.061e+5
478.81,2.216e+5
478.83,4.486e+5
478.85,8.802e+5
478.86,1.218e+6
478.88,2.281e+6
478.90,4.137e+6
478.92,7.274e+6
478.93,9.532e+6
478.95,1.599e+7
478.97,2.599e+7
478.99,4.094e+7
479.00,5.079e+7
479.02,7.633e+7
479.04,1.112e+8
479.06,1.570e+8
479.07,1.843e+8
479.09,2.483e+8
479.11,3.241e+8
479.13,4.099e+8
479.14,4.557e+8
479.16,5.500e+8
479.18,6.433e+8
479.20,7.292e+8
479.22,8.011e+8
479.23,8.299e+8
479.25,8.698e+8
479.27,8.835e+8
479.29,8.698e+8
479.30,8.529e+8
479.32,8.011e+8
479.34,7.292e+8
479.36,6.433e+8
479.37,5.971e+8
479.39,5.026e+8
479.41,4.099e+8
479.43,3.241e+8
479.44,2.847e+8
479.46,2.148e+8
479.48,1.570e+8
479.50,1.112e+8
479.51,9.249e+7
479.53,6.251e+7
479.55,4.094e+7
479.57,2.599e+7
479.58,2.046e+7
479.60,1.239e+7
479.62,7.274e+6
479.64,4.137e+6
479.65,3.084e+6
479.67,1.674e+6
479.69,8.802e+5
479.71,4.486e+5
479.72,3.166e+5
479.74,1.539e+5
479.76,7.255e+4
479.78,3.314e+4
479.80,1.467e+4
479.81,9.645e+3
479.83,4.074e+3
479.85,1.667e+3
479.87,6.613e+2
479.88,4.116e+2
479.90,1.558e+2
479.92,5.714e+1
479.94,2.031e+1
479.95,1.197e+1
479.97,4.058e+0
479.99,1.334e+0
480.01,4.248e-1
480.02,2.369e-1
480.04,7.201e-2
480.06,2.121e-2
480.08,6.053e-3
480.09,3.196e-3
480.11,8.703e-4
480.13,2.297e-4
480.15,5.874e-5
480.16,2.936e-5
480.18,7.167e-6
480.20,1.708e-6
480.22,4.488e-7
480.23,3.098e-7
480.25,5.758e-7
480.27,2.213e-6
480.29,8.800e-6
480.31,3.403e-5
480.32,6.616e-5
480.34,2.442e-4
480.36,8.741e-4
480.38,3.033e-3
480.39,5.583e-3
480.41,1.849e-2
480.43,5.933e-2
480.45,1.846e-1
480.46,3.219e-1
480.48,9.559e-1
480.50,2.752e+0
480.52,7.679e+0
480.53,1.268e+1
480.55,3.377e+1
480.57,8.719e+1
480.59,2.182e+2
480.60,3.412e+2
480.62,8.151e+2
480.64,1.887e+3
480.66,4.237e+3
480.67,6.274e+3
480.69,1.344e+4
480.71,2.791e+4
480.73,5.619e+4
480.74,7.881e+4
480.76,1.514e+5
480.78,2.820e+5
480.80,5.092e+5
480.81,6.763e+5
480.83,1.166e+6
480.85,1.947e+6
480.87,3.153e+6
480.89,4.949e+6
480.90,6.129e+6
480.92,9.183e+6
480.94,1.334e+7
480.96,1.878e+7
480.97,2.202e+7
480.99,2.959e+7
481.01,3.854e+7
481.03,4.867e+7
481.04,5.405e+7
481.06,6.514e+7
481.08,7.610e+7
481.10,8.618e+7
481.11,9.065e+7
481.13,9.798e+7
481.15,1.027e+8
481.17,1.043e+8
481.18,1.039e+8
481.20,1.007e+8
481.22,9.461e+7
481.24,8.618e+7
481.25,8.130e+7
481.27,7.068e+7
481.29,5.957e+7
481.31,4.867e+7
481.32,4.348e+7
481.34,3.390e+7
481.36,2.563e+7
481.38,1.878e+7
481.39,1.589e+7
481.41,1.111e+7
481.43,7.531e+6
481.45,4.949e+6
481.47,3.153e+6
481.48,2.487e+6
481.50,1.512e+6
481.52,8.913e+5
481.54,5.092e+5
481.55,3.805e+5
481.57,2.075e+5
481.59,1.097e+5
481.61,5.619e+4
481.62,3.976e+4
481.64,1.944e+4
481.66,9.218e+3
481.68,4.237e+3
481.69,2.839e+3
481.71,1.245e+3
481.73,5.294e+2
481.75,2.182e+2
481.76,1.385e+2
481.78,5.447e+1
481.80,2.077e+1
481.82,7.679e+0
481.83,4.615e+0
481.85,1.628e+0
481.87,5.569e-1
481.89,1.846e-1
481.90,1.051e-1
481.92,3.325e-2
481.94,1.020e-2
481.96,3.033e-3
481.97,1.634e-3
481.99,4.639e-4
482.01,1.276e-4
482.03,3.403e-5
482.05,8.798e-6
482.06,4.421e-6
482.08,1.091e-6
482.10,2.609e-7
482.12,6.050e-8
482.13,2.879e-8
482.15,6.371e-9
482.17,1.367e-9
482.19,2.842e-10
482.20,1.281e-10
482.22,2.542e-11
482.24,4.891e-12
482.26,9.122e-13
582.43,3.845e-12
582.45,1.518e-11
582.47,5.871e-11
582.48,1.145e-10
582.50,4.290e-10
582.52,1.573e-9
582.54,5.649e-9
582.55,1.062e-8
582.57,3.695e-8
582.59,1.258e-7
582.61,4.196e-7
582.62,7.603e-7
582.64,2.456e-6
582.66,7.770e-6
582.68,2.406e-5
582.69,4.201e-5
582.71,1.261e-4
582.73,3.703e-4
582.75,1.065e-3
582.76,1.792e-3
582.78,4.994e-3
582.80,1.362e-2
582.82,3.640e-2
582.83,5.901e-2
582.85,1.527e-1
582.87,3.870e-1
582.89,9.600e-1
582.90,1.500e+0
582.92,3.605e+0
582.94,8.484e+0
582.96,1.955e+1
582.98,4.409e+1
582.99,6.570e+1
583.01,1.436e+2
583.03,3.072e+2
583.05,6.437e+2
583.06,9.243e+2
583.08,1.876e+3
583.10,3.728e+3
583.12,7.253e+3
583.13,1.004e+4
583.15,1.892e+4
583.17,3.492e+4
583.19,6.309e+4
583.20,8.414e+4
583.22,1.473e+5
583.24,2.525e+5
583.26,4.237e+5
583.27,5.445e+5
583.29,8.852e+5
583.31,1.409e+6
583.33,2.196e+6
583.34,2.720e+6
583.36,4.107e+6
583.38,6.071e+6
583.40,8.788e+6
583.41,1.049e+7
583.43,1.471e+7
583.45,2.019e+7
583.47,2.714e+7
583.48,3.122e+7
583.50,4.066e+7
583.52,5.184e+7
583.54,6.472e+7
583.56,7.911e+7
583.57,8.677e+7
583.59,1.028e+8
583.61,1.191e+8
583.63,1.352e+8
583.64,1.429e+8
583.66,1.572e+8
583.68,1.693e+8
583.70,1.785e+8
583.71,1.818e+8
583.73,1.857e+8
583.75,1.857e+8
583.77,1.818e+8
583.78,1.785e+8
583.80,1.693e+8
583.82,1.572e+8
583.84,1.429e+8
583.85,1.352e+8
583.87,1.191e+8
583.89,1.028e+8
583.91,8.677e+7
583.92,7.911e+7
583.94,6.472e+7
583.96,5.184e+7
583.98,4.066e+7
583.99,3.572e+7
584.01,2.714e+7
584.03,2.019e+7
584.05,1.471e+7
584.06,1.245e+7
584.08,8.788e+6
584.10,6.071e+6
584.12,4.107e+6
584.14,2.720e+6
584.15,2.196e+6
584.17,1.409e+6
584.19,8.852e+5
584.21,5.445e+5
584.22,4.237e+5
584.24,2.525e+5
584.26,1.473e+5
584.28,8.414e+4
584.29,6.309e+4
584.31,3.492e+4
584.33,1.892e+4
584.35,1.004e+4
584.36,7.253e+3
584.38,3.728e+3
584.40,1.876e+3
584.42,9.243e+2
584.43,6.437e+2
584.45,3.072e+2
584.47,1.436e+2
584.49,6.570e+1
584.50,4.409e+1
584.52,1.955e+1
584.54,8.484e+0
584.56,3.605e+0
584.57,2.332e+0
584.59,9.600e-1
584.61,3.870e-1
584.63,1.527e-1
584.65,5.901e-2
584.66,3.640e-2
584.68,1.362e-2
584.70,4.994e-3
584.72,1.792e-3
584.73,1.065e-3
584.75,3.703e-4
584.77,1.261e-4
584.79,4.201e-5
584.80,2.406e-5
584.82,7.770e-6
584.84,2.456e-6
584.86,7.603e-7
584.87,4.196e-7
584.89,1.258e-7
584.91,3.695e-8
584.93,1.062e-8
584.94,5.649e-9
584.96,1.573e-9
584.98,4.290e-10
585.00,1.145e-10
585.01,5.871e-11
585.03,1.518e-11
585.05,3.845e-12
