Wavelength (nm),Sum(calc),Al I (3.9e-2),Al II (7.6e-1),Al III (5.6e-4),Si I (2.2e-2),Si II (1.8e-1),Si III (1.5e-4)
199.975,1.329e-22,,,,,,1.329e-22
199.980,3.372e-21,,,,,,3.372e-21
199.985,7.554e-20,,,,,,7.554e-20
199.990,1.494e-18,,,,,,1.494e-18
199.995,2.607e-17,,,,,,2.607e-17
200.000,4.015e-16,,,,,,4.015e-16
200.005,5.458e-15,,,,,,5.458e-15
200.010,6.550e-14,,,,,,6.550e-14
200.015,6.936e-13,,,,,,6.936e-13
200.020,6.484e-12,,,,,,6.484e-12
200.025,5.349e-11,,,,,,5.349e-11
200.030,3.895e-10,,,,,,3.895e-10
200.035,2.503e-9,,,,,,2.503e-9
200.040,1.420e-8,,,,,,1.420e-8
200.045,7.110e-8,,,,,,7.110e-8
200.050,3.142e-7,,,,,,3.142e-7
200.055,1.225e-6,,,,,,1.225e-6
200.060,4.218e-6,,,,,,4.218e-6
200.065,1.282e-5,,,,,,1.282e-5
200.070,3.437e-5,,,,,,3.437e-5
200.075,8.135e-5,,,,,,8.135e-5
200.080,1.699e-4,,,,,,1.699e-4
200.085,3.134e-4,,,,,,3.134e-4
200.090,5.099e-4,,,,,,5.099e-4
200.095,7.325e-4,,,,,,7.325e-4
200.100,9.286e-4,,,,,,9.286e-4
200.105,1.039e-3,,,,,,1.039e-3
200.110,1.026e-3,,,,,,1.026e-3
200.115,8.944e-4,,,,,,8.944e-4
200.120,6.881e-4,,,,,,6.881e-4
200.125,4.673e-4,,,,,,4.673e-4
200.130,2.800e-4,,,,,,2.800e-4
200.135,1.481e-4,,,,,,1.481e-4
200.140,6.916e-5,,,,,,6.916e-5
200.145,2.850e-5,,,,,,2.850e-5
200.150,1.037e-5,,,,,,1.037e-5
200.155,3.327e-6,,,,,,3.327e-6
200.160,9.428e-7,,,,,,9.428e-7
200.165,2.358e-7,,,,,,2.358e-7
200.170,5.203e-8,,,,,,5.203e-8
200.175,1.014e-8,,,,,,1.014e-8
200.180,1.743e-9,,,,,,1.743e-9
200.185,2.645e-10,,,,,,2.645e-10
200.190,3.543e-11,,,,,,3.543e-11
200.195,4.188e-12,,,,,,4.188e-12
200.200,4.370e-13,,,,,,4.370e-13
200.205,4.025e-14,,,,,,4.025e-14
200.210,3.271e-15,,,,,,3.271e-15
200.215,2.347e-16,,,,,,2.347e-16
200.220,1.486e-17,,,,,,1.486e-17
200.225,8.306e-19,,,,,,8.306e-19
200.230,4.097e-20,,,,,,4.097e-20
200.235,1.784e-21,,,,,,1.784e-21
200.365,6.797e-14,,,,,6.797e-14,1.561e-21
200.370,1.621e-12,,,,,1.621e-12,1.552e-21
200.375,3.414e-11,,,,,3.414e-11,1.544e-21
200.380,6.350e-10,,,,,6.350e-10,1.535e-21
200.385,1.043e-8,,,,,1.043e-8,1.526e-21
200.390,1.512e-7,,,,,1.512e-7,1.518e-21
200.395,1.936e-6,,,,,1.936e-6,1.509e-21
200.400,2.190e-5,,,,,2.190e-5,1.501e-21
200.405,2.186e-4,,,,,2.186e-4,1.492e-21
200.410,1.928e-3,,,,,1.928e-3,1.484e-21
200.415,1.501e-2,,,,,1.501e-2,1.475e-21
200.420,1.032e-1,,,,,1.032e-1,1.466e-21
200.425,6.265e-1,,,,,6.265e-1,1.458e-21
200.430,3.359e+0,,,,,3.359e+0,1.449e-21
200.435,1.590e+1,,,,,1.590e+1,1.441e-21
200.440,6.647e+1,,,,,6.647e+1,1.432e-21
200.445,2.454e+2,,,,,2.454e+2,1.423e-21
200.450,7.999e+2,,,,,7.999e+2,1.415e-21
200.455,2.302e+3,,,,,2.302e+3,1.406e-21
200.460,5.852e+3,,,,,5.852e+3,1.398e-21
200.465,1.314e+4,,,,,1.314e+4,1.389e-21
200.469,2.293e+4,,,,,2.293e+4,1.382e-21
200.474,4.115e+4,,,,,4.115e+4,1.374e-21
200.479,6.519e+4,,,,,6.519e+4,1.365e-21
200.484,9.121e+4,,,,,9.121e+4,1.357e-21
200.489,1.127e+5,,,,,1.127e+5,1.348e-21
200.494,1.229e+5,,,,,1.229e+5,1.339e-21
200.499,1.184e+5,,,,,1.184e+5,1.331e-21
200.504,1.008e+5,,,,,1.008e+5,1.322e-21
200.509,7.569e+4,,,,,7.569e+4,1.314e-21
200.514,5.021e+4,,,,,5.021e+4,1.305e-21
200.519,2.941e+4,,,,,2.941e+4,1.297e-21
200.524,1.521e+4,,,,,1.521e+4,1.288e-21
200.529,6.948e+3,,,,,6.948e+3,1.279e-21
200.534,2.802e+3,,,,,2.802e+3,1.271e-21
200.539,9.981e+2,,,,,9.981e+2,1.262e-21
200.544,3.139e+2,,,,,3.139e+2,1.254e-21
200.549,8.718e+1,,,,,8.718e+1,1.245e-21
200.554,2.138e+1,,,,,2.138e+1,1.237e-21
200.559,4.630e+0,,,,,4.630e+0,1.228e-21
200.564,8.853e-1,,,,,8.853e-1,1.219e-21
200.569,1.495e-1,,,,,1.495e-1,1.211e-21
200.574,2.229e-2,,,,,2.229e-2,1.202e-21
200.579,2.935e-3,,,,,2.935e-3,1.194e-21
200.584,3.413e-4,,,,,3.413e-4,1.185e-21
200.589,3.504e-5,,,,,3.504e-5,1.176e-21
200.594,3.177e-6,,,,,3.177e-6,1.168e-21
200.599,2.543e-7,,,,,2.543e-7,1.159e-21
200.604,1.798e-8,,,,,1.798e-8,1.151e-21
200.609,1.122e-9,,,,,1.122e-9,1.142e-21
200.614,6.187e-11,,,,,6.187e-11,1.134e-21
200.619,3.012e-12,,,,,3.012e-12,1.125e-21
200.624,1.295e-13,,,,,1.295e-13,1.116e-21
200.784,8.420e-22,,,,,1.072e-13,8.420e-22
200.789,1.982e-20,,,,,1.065e-13,1.982e-20
200.794,4.121e-19,,,,,1.058e-13,4.121e-19
200.799,7.572e-18,,,,,1.051e-13,7.572e-18
200.804,1.229e-16,,,,,1.044e-13,1.229e-16
200.809,1.762e-15,,,,,1.037e-13,1.762e-15
200.814,2.233e-14,,,,,1.030e-13,2.233e-14
200.819,2.500e-13,,,,,1.023e-13,2.500e-13
200.824,2.472e-12,,,,,1.016e-13,2.472e-12
200.829,2.160e-11,,,,,1.009e-13,2.160e-11
200.834,1.668e-10,,,,,1.002e-13,1.668e-10
200.839,1.137e-9,,,,,9.950e-14,1.137e-9
200.844,6.853e-9,,,,,9.881e-14,6.853e-9
200.849,3.648e-8,,,,,9.811e-14,3.648e-8
200.854,1.716e-7,,,,,9.741e-14,1.716e-7
200.859,7.131e-7,,,,,9.671e-14,7.131e-7
200.864,2.618e-6,,,,,9.602e-14,2.618e-6
200.869,8.493e-6,,,,,9.532e-14,8.493e-6
200.874,2.434e-5,,,,,9.462e-14,2.434e-5
200.879,6.162e-5,,,,,9.393e-14,6.162e-5
200.884,1.379e-4,,,,,9.323e-14,1.379e-4
200.889,2.724e-4,,,,,9.253e-14,2.724e-4
200.894,4.757e-4,,,,,9.184e-14,4.757e-4
200.899,7.339e-4,,,,,9.114e-14,7.339e-4
200.904,1.000e-3,,,,,9.044e-14,1.000e-3
200.909,1.204e-3,,,,,8.975e-14,1.204e-3
200.914,1.281e-3,,,,,8.905e-14,1.281e-3
200.919,1.204e-3,,,,,8.835e-14,1.204e-3
200.924,1.000e-3,,,,,8.766e-14,1.000e-3
200.929,7.339e-4,,,,,8.696e-14,7.339e-4
200.934,4.759e-4,,,,,8.626e-14,4.759e-4
200.939,2.733e-4,,,,,8.556e-14,2.733e-4
200.944,1.405e-4,,,,,8.487e-14,1.405e-4
200.949,6.948e-5,,,,,8.417e-14,6.948e-5
200.954,4.473e-5,,,,,8.347e-14,4.473e-5
200.959,5.521e-5,,,,,8.278e-14,5.521e-5
200.964,9.722e-5,,,,,8.208e-14,9.722e-5
200.969,1.700e-4,,,,,8.138e-14,1.700e-4
200.974,2.677e-4,,,,,8.069e-14,2.677e-4
200.979,3.738e-4,,,,,7.999e-14,3.738e-4
200.984,4.612e-4,,,,,7.929e-14,4.612e-4
200.989,5.030e-4,,,,,7.860e-14,5.030e-4
200.994,4.847e-4,,,,,7.790e-14,4.847e-4
200.999,4.126e-4,,,,,7.720e-14,4.126e-4
201.004,3.104e-4,,,,,7.651e-14,3.104e-4
201.009,2.063e-4,,,,,7.581e-14,2.063e-4
201.014,1.212e-4,,,,,7.511e-14,1.212e-4
201.019,6.288e-5,,,,,7.441e-14,6.288e-5
201.024,2.883e-5,,,,,7.372e-14,2.883e-5
201.029,1.168e-5,,,,,7.302e-14,1.168e-5
201.034,4.181e-6,,,,,7.232e-14,4.181e-6
201.039,1.322e-6,,,,,7.163e-14,1.322e-6
201.044,3.696e-7,,,,,7.093e-14,3.696e-7
201.049,9.127e-8,,,,,7.023e-14,9.127e-8
201.054,1.991e-8,,,,,6.954e-14,1.991e-8
201.059,3.839e-9,,,,,6.884e-14,3.839e-9
201.064,6.540e-10,,,,,6.814e-14,6.540e-10
201.069,9.843e-11,,,,,6.745e-14,9.843e-11
201.074,1.309e-11,,,,,6.675e-14,1.309e-11
201.079,1.538e-12,,,,,6.605e-14,1.538e-12
201.084,1.597e-13,,,,,6.536e-14,1.597e-13
201.089,1.465e-14,,,,,6.466e-14,1.465e-14
201.094,1.188e-15,,,,,6.396e-14,1.188e-15
201.099,8.507e-17,,,,,6.326e-14,8.507e-17
201.104,5.383e-18,,,,,6.257e-14,5.383e-18
201.109,3.010e-19,,,,,6.187e-14,3.010e-19
201.114,1.487e-20,,,,,6.117e-14,1.487e-20
201.119,6.493e-22,,,,,6.048e-14,6.493e-22
201.358,2.717e-14,,,,,2.717e-14,3.162e-21
201.363,6.930e-13,,,,,6.930e-13,3.215e-21
201.368,1.563e-11,,,,,1.563e-11,3.268e-21
201.373,3.116e-10,,,,,3.116e-10,3.320e-21
201.378,5.493e-9,,,,,5.493e-9,3.373e-21
201.383,8.562e-8,,,,,8.562e-8,3.425e-21
201.388,1.180e-6,,,,,1.180e-6,3.478e-21
201.393,1.437e-5,,,,,1.437e-5,3.530e-21
201.398,1.548e-4,,,,,1.548e-4,3.583e-21
201.403,1.475e-3,,,,,1.475e-3,3.636e-21
201.408,1.242e-2,,,,,1.242e-2,3.688e-21
201.413,9.242e-2,,,,,9.242e-2,3.741e-21
201.418,6.083e-1,,,,,6.083e-1,3.793e-21
201.423,3.540e+0,,,,,3.540e+0,3.846e-21
201.428,1.821e+1,,,,,1.821e+1,3.898e-21
201.433,8.283e+1,,,,,8.283e+1,3.951e-21
201.438,3.331e+2,,,,,3.331e+2,4.004e-21
201.443,1.184e+3,,,,,1.184e+3,4.056e-21
201.448,3.723e+3,,,,,3.723e+3,4.109e-21
201.453,1.035e+4,,,,,1.035e+4,4.161e-21
201.458,2.543e+4,,,,,2.543e+4,4.214e-21
201.463,5.524e+4,,,,,5.524e+4,4.266e-21
201.468,1.061e+5,,,,,1.061e+5,4.319e-21
201.473,1.802e+5,,3.165e-12,,,1.802e+5,4.372e-21
201.478,2.705e+5,,7.657e-11,,,2.705e+5,4.424e-21
201.483,3.591e+5,,1.638e-9,,,3.591e+5,4.477e-21
201.488,4.215e+5,,3.099e-8,,,4.215e+5,4.529e-21
201.493,4.373e+5,,5.184e-7,,,4.373e+5,4.582e-21
201.498,4.012e+5,,7.669e-6,,,4.012e+5,4.634e-21
201.503,3.254e+5,,1.003e-4,,,3.254e+5,4.687e-21
201.508,2.334e+5,,1.160e-3,,,2.334e+5,4.740e-21
201.513,1.480e+5,,1.187e-2,,,1.480e+5,4.792e-21
201.518,8.294e+4,,1.073e-1,,,8.294e+4,4.845e-21
201.523,4.110e+4,,8.583e-1,,,4.110e+4,4.897e-21
201.528,1.802e+4,,6.070e+0,,,1.801e+4,4.950e-21
201.533,7.015e+3,,3.796e+1,,,6.977e+3,5.002e-21
201.538,2.600e+3,,2.100e+2,,,2.390e+3,5.055e-21
201.543,1.751e+3,,1.027e+3,,,7.237e+2,5.108e-21
201.548,4.639e+3,,4.445e+3,,,1.938e+2,5.160e-21
201.553,1.706e+4,,1.702e+4,,,4.586e+1,5.213e-21
201.558,5.766e+4,,5.765e+4,,,9.598e+0,5.265e-21
201.563,1.729e+5,,1.729e+5,,,1.776e+0,5.318e-21
201.568,4.595e+5,,4.595e+5,,,2.906e-1,5.371e-21
201.573,1.083e+6,,1.083e+6,,,4.254e-2,5.423e-21
201.578,2.266e+6,,2.266e+6,,,1.022e-2,5.476e-21
201.583,4.222e+6,,4.222e+6,,,4.026e-2,5.528e-21
201.588,7.025e+6,,7.025e+6,,,2.871e-1,5.581e-21
201.593,1.049e+7,,1.049e+7,,,1.837e+0,5.633e-21
201.598,1.417e+7,,1.417e+7,,,1.040e+1,5.686e-21
201.603,1.748e+7,,1.748e+7,,,5.205e+1,5.739e-21
201.608,1.993e+7,,1.993e+7,,,2.304e+2,5.791e-21
201.613,2.127e+7,,2.127e+7,,,9.019e+2,5.844e-21
201.618,2.152e+7,,2.151e+7,,,3.122e+3,5.896e-21
201.623,2.078e+7,,2.077e+7,,,9.557e+3,5.949e-21
201.628,1.916e+7,,1.914e+7,,,2.587e+4,6.001e-21
201.633,1.680e+7,,1.674e+7,,,6.193e+4,6.054e-21
201.638,1.390e+7,,1.377e+7,,,1.311e+5,6.107e-21
201.643,1.079e+7,,1.055e+7,,,2.454e+5,6.159e-21
201.648,7.846e+6,,7.440e+6,,,4.063e+5,6.212e-21
201.653,5.389e+6,,4.794e+6,,,5.948e+5,6.264e-21
201.658,3.572e+6,,2.802e+6,,,7.700e+5,6.317e-21
201.663,2.358e+6,,1.477e+6,,,8.815e+5,6.369e-21
201.668,1.591e+6,,6.986e+5,,,8.924e+5,6.422e-21
201.673,1.094e+6,,2.956e+5,,,7.989e+5,6.475e-21
201.678,7.440e+5,,1.115e+5,,,6.325e+5,6.527e-21
201.683,4.802e+5,,3.743e+4,,,4.428e+5,6.580e-21
201.688,2.853e+5,,1.117e+4,,,2.741e+5,6.632e-21
201.693,1.530e+5,,2.956e+3,,,1.501e+5,6.685e-21
201.698,7.336e+4,,6.937e+2,,,7.266e+4,6.737e-21
201.703,3.125e+4,,1.443e+2,,,3.111e+4,6.790e-21
201.708,1.181e+4,,2.657e+1,,,1.178e+4,6.843e-21
201.713,3.948e+3,,4.332e+0,,,3.944e+3,6.895e-21
201.718,1.168e+3,,6.252e-1,,,1.168e+3,6.948e-21
201.723,3.058e+2,,7.984e-2,,,3.057e+2,7.000e-21
201.728,7.079e+1,,9.021e-3,,,7.078e+1,7.053e-21
201.733,1.449e+1,,9.018e-4,,,1.449e+1,7.105e-21
201.738,2.624e+0,,7.975e-5,,,2.624e+0,7.158e-21
201.743,4.202e-1,,6.239e-6,,,4.202e-1,7.211e-21
201.748,5.949e-2,,4.317e-7,,,5.949e-2,7.263e-21
201.753,7.449e-3,,2.642e-8,,,7.449e-3,7.316e-21
201.758,8.248e-4,,1.430e-9,,,8.248e-4,7.368e-21
201.763,8.076e-5,,6.846e-11,,,8.076e-5,7.421e-21
201.768,6.993e-6,,2.899e-12,,,6.993e-6,7.474e-21
201.773,5.355e-7,,2.913e-12,,,5.355e-7,7.526e-21
201.778,3.626e-8,,2.927e-12,,,3.626e-8,7.579e-21
201.783,2.171e-9,,2.941e-12,,,2.171e-9,7.631e-21
201.788,1.150e-10,,2.955e-12,,,1.150e-10,7.684e-21
201.793,5.384e-12,,2.969e-12,,,5.384e-12,7.736e-21
201.798,2.230e-13,,2.983e-12,,,2.230e-13,7.789e-21
202.077,3.769e-12,,3.769e-12,,,2.245e-13,1.072e-20
202.082,8.732e-11,,8.732e-11,,,2.245e-13,1.078e-20
202.087,1.790e-9,,1.790e-9,,,2.245e-13,1.083e-20
202.092,3.247e-8,,3.247e-8,,,2.245e-13,1.088e-20
202.097,5.213e-7,,5.213e-7,,,2.246e-13,1.093e-20
202.102,7.405e-6,,7.405e-6,,,2.246e-13,1.099e-20
202.107,9.308e-5,,9.308e-5,,,2.246e-13,1.104e-20
202.112,1.035e-3,,1.035e-3,,,2.247e-13,1.109e-20
202.117,1.019e-2,,1.019e-2,,,2.247e-13,1.114e-20
202.122,8.875e-2,,8.875e-2,,,2.247e-13,1.120e-20
202.127,6.840e-1,,6.840e-1,,,2.247e-13,1.125e-20
202.132,4.665e+0,,4.665e+0,,,2.248e-13,1.130e-20
202.137,2.815e+1,,2.815e+1,,,2.248e-13,1.135e-20
202.142,1.504e+2,,1.504e+2,,,2.248e-13,1.141e-20
202.147,7.105e+2,,7.105e+2,,,2.248e-13,1.146e-20
202.152,2.971e+3,,2.971e+3,,,2.249e-13,1.151e-20
202.157,1.100e+4,,1.100e+4,,,2.249e-13,1.156e-20
202.162,3.600e+4,,3.600e+4,,,2.249e-13,1.162e-20
202.167,1.043e+5,,1.043e+5,,,2.250e-13,1.167e-20
202.172,2.675e+5,,2.675e+5,,,2.250e-13,1.172e-20
202.177,6.069e+5,,6.069e+5,,,2.250e-13,1.177e-20
202.182,1.219e+6,,1.219e+6,,,2.250e-13,1.183e-20
202.187,2.165e+6,,2.165e+6,,,2.251e-13,1.188e-20
202.192,3.404e+6,,3.404e+6,,,2.251e-13,1.193e-20
202.197,4.735e+6,,4.735e+6,,,2.251e-13,1.198e-20
202.202,5.829e+6,,5.829e+6,,,2.251e-13,1.204e-20
202.207,6.350e+6,,6.350e+6,,,2.252e-13,1.209e-20
202.212,6.122e+6,,6.122e+6,,,2.252e-13,1.214e-20
202.217,5.222e+6,,5.222e+6,,,2.252e-13,1.219e-20
202.222,3.942e+6,,3.942e+6,,,2.252e-13,1.225e-20
202.227,2.633e+6,,2.633e+6,,,2.253e-13,1.230e-20
202.232,1.556e+6,,1.556e+6,,,2.253e-13,1.235e-20
202.237,8.139e+5,,8.139e+5,,,2.253e-13,1.241e-20
202.242,3.767e+5,,3.767e+5,,,2.254e-13,1.246e-20
202.247,1.543e+5,,1.543e+5,,,2.254e-13,1.251e-20
202.252,5.592e+4,,5.592e+4,,,2.254e-13,1.256e-20
202.257,1.793e+4,,1.793e+4,,,2.254e-13,1.262e-20
202.262,5.089e+3,,5.089e+3,,,2.255e-13,1.267e-20
202.267,1.278e+3,,1.278e+3,,,2.255e-13,1.272e-20
202.272,2.840e+2,,2.840e+2,,,2.255e-13,1.277e-20
202.277,5.584e+1,,5.584e+1,,,2.255e-13,1.283e-20
202.282,9.717e+0,,9.717e+0,,,2.256e-13,1.288e-20
202.287,1.496e+0,,1.496e+0,,,2.256e-13,1.293e-20
202.292,2.039e-1,,2.039e-1,,,2.256e-13,1.298e-20
202.297,2.458e-2,,2.458e-2,,,2.257e-13,1.304e-20
202.302,2.622e-3,,2.622e-3,,,2.257e-13,1.309e-20
202.307,2.476e-4,,2.476e-4,,,2.257e-13,1.314e-20
202.312,2.068e-5,,2.068e-5,,,2.257e-13,1.319e-20
202.317,1.529e-6,,1.529e-6,,,2.258e-13,1.325e-20
202.322,1.000e-7,,1.000e-7,,,2.258e-13,1.330e-20
202.327,5.791e-9,,5.791e-9,,,2.258e-13,1.335e-20
202.332,2.966e-10,,2.966e-10,,,2.258e-13,1.340e-20
202.337,1.345e-11,,1.345e-11,,,2.259e-13,1.346e-20
202.342,5.393e-13,,5.393e-13,,,2.259e-13,1.351e-20
204.858,3.996e-20,,6.466e-12,,,2.395e-13,3.996e-20
204.863,8.711e-19,,6.478e-12,,,2.395e-13,8.711e-19
204.868,1.686e-17,,6.489e-12,,,2.395e-13,1.686e-17
204.873,2.896e-16,,6.501e-12,,,2.395e-13,2.896e-16
204.878,4.418e-15,,6.513e-12,,,2.396e-13,4.418e-15
204.883,5.983e-14,,6.525e-12,,,2.396e-13,5.983e-14
204.888,7.194e-13,,6.537e-12,,,2.396e-13,7.194e-13
204.893,7.679e-12,,6.548e-12,,,2.396e-13,7.679e-12
204.898,7.278e-11,,6.560e-12,,,2.397e-13,7.278e-11
204.903,6.123e-10,,6.572e-12,,,2.397e-13,6.123e-10
204.908,4.574e-9,,6.584e-12,,,2.397e-13,4.574e-9
204.913,3.034e-8,,6.595e-12,,,2.397e-13,3.034e-8
204.918,1.786e-7,,6.607e-12,,,2.398e-13,1.786e-7
204.923,9.337e-7,,6.619e-12,,,2.398e-13,9.337e-7
204.928,4.334e-6,,6.631e-12,,,2.398e-13,4.334e-6
204.933,1.786e-5,,6.643e-12,,,2.399e-13,1.786e-5
204.938,6.532e-5,,6.654e-12,,,2.399e-13,6.532e-5
204.943,2.121e-4,,6.666e-12,,,2.399e-13,2.121e-4
204.948,6.117e-4,,6.678e-12,,,2.399e-13,6.117e-4
204.953,1.566e-3,,6.690e-12,,,2.400e-13,1.566e-3
204.958,3.559e-3,,6.701e-12,,,2.400e-13,3.559e-3
204.963,7.182e-3,,6.713e-12,,,2.400e-13,7.182e-3
204.968,1.287e-2,,6.725e-12,,,2.400e-13,1.287e-2
204.973,2.046e-2,,6.737e-12,,,2.401e-13,2.046e-2
204.978,2.890e-2,,6.749e-12,,,2.401e-13,2.890e-2
204.983,3.623e-2,,6.760e-12,,,2.401e-13,3.623e-2
204.988,4.032e-2,,6.772e-12,,,2.402e-13,4.032e-2
204.993,3.985e-2,,6.784e-12,,,2.402e-13,3.985e-2
204.998,3.496e-2,,6.796e-12,,,2.402e-13,3.496e-2
205.003,2.723e-2,,6.807e-12,,,2.402e-13,2.723e-2
205.008,1.883e-2,,6.819e-12,,,2.403e-13,1.883e-2
205.013,1.156e-2,,6.831e-12,,,2.403e-13,1.156e-2
205.018,6.301e-3,,6.843e-12,,,2.403e-13,6.301e-3
205.023,3.049e-3,,6.855e-12,,,2.403e-13,3.049e-3
205.028,1.310e-3,,6.866e-12,,,2.404e-13,1.310e-3
205.033,4.997e-4,,6.878e-12,,,2.404e-13,4.997e-4
205.038,1.692e-4,,6.890e-12,,,2.404e-13,1.692e-4
205.043,5.088e-5,,6.902e-12,,,2.404e-13,5.088e-5
205.048,1.358e-5,,6.913e-12,,,2.405e-13,1.358e-5
205.053,3.218e-6,,6.925e-12,,,2.405e-13,3.218e-6
205.058,6.772e-7,,6.937e-12,,,2.405e-13,6.772e-7
205.063,1.265e-7,,6.949e-12,,,2.406e-13,1.265e-7
205.068,2.098e-8,,6.961e-12,,,2.406e-13,2.098e-8
205.073,3.089e-9,,6.972e-12,,,2.406e-13,3.089e-9
205.078,4.038e-10,,6.984e-12,,,2.406e-13,4.038e-10
205.083,4.686e-11,,6.996e-12,,,2.407e-13,4.686e-11
205.088,4.828e-12,,7.008e-12,,,2.407e-13,4.828e-12
205.093,4.417e-13,,7.019e-12,,,2.407e-13,4.417e-13
205.098,3.587e-14,,7.031e-12,,,2.407e-13,3.587e-14
205.103,2.586e-15,,7.043e-12,,,2.408e-13,2.586e-15
205.108,1.656e-16,,7.055e-12,,,2.408e-13,1.656e-16
205.113,9.410e-18,,7.067e-12,,,2.408e-13,9.410e-18
205.118,4.748e-19,,7.078e-12,,,2.409e-13,4.748e-19
205.677,5.893e-11,,8.395e-12,,5.893e-11,2.439e-13,3.567e-19
205.682,1.378e-9,,8.407e-12,,1.378e-9,2.439e-13,3.557e-19
205.687,2.861e-8,,8.419e-12,,2.861e-8,2.439e-13,3.546e-19
205.692,5.282e-7,,8.430e-12,,5.282e-7,2.439e-13,3.536e-19
205.697,8.664e-6,,8.442e-12,,8.664e-6,2.440e-13,3.525e-19
205.702,1.263e-4,,8.454e-12,,1.263e-4,2.440e-13,3.515e-19
205.707,1.636e-3,,8.466e-12,,1.636e-3,2.440e-13,3.504e-19
205.712,1.884e-2,,8.478e-12,,1.884e-2,2.441e-13,3.493e-19
205.717,1.927e-1,,8.489e-12,,1.927e-1,2.441e-13,3.483e-19
205.722,1.752e+0,,8.501e-12,,1.752e+0,2.441e-13,3.472e-19
205.727,1.415e+1,,8.513e-12,,1.415e+1,2.441e-13,3.462e-19
205.732,1.016e+2,,8.525e-12,,1.016e+2,2.442e-13,3.451e-19
205.737,6.483e+2,,8.536e-12,,6.483e+2,2.442e-13,3.441e-19
205.742,3.676e+3,,8.548e-12,,3.676e+3,2.442e-13,3.430e-19
205.747,1.852e+4,,8.560e-12,,1.852e+4,2.442e-13,3.419e-19
205.752,8.293e+4,,8.572e-12,,8.293e+4,2.443e-13,3.409e-19
205.757,3.300e+5,,8.584e-12,,3.300e+5,2.443e-13,3.398e-19
205.762,1.167e+6,,8.595e-12,,1.167e+6,2.443e-13,3.388e-19
205.767,3.667e+6,,8.607e-12,,3.667e+6,2.444e-13,3.377e-19
205.772,1.024e+7,,8.619e-12,,1.024e+7,2.444e-13,3.367e-19
205.777,2.541e+7,,8.631e-12,,2.541e+7,2.444e-13,3.356e-19
205.782,5.603e+7,,8.642e-12,,5.603e+7,2.444e-13,3.346e-19
205.787,1.098e+8,,8.654e-12,,1.098e+8,2.445e-13,3.335e-19
205.792,1.912e+8,,8.666e-12,,1.912e+8,2.445e-13,3.324e-19
205.797,2.960e+8,,8.678e-12,,2.960e+8,2.445e-13,3.314e-19
205.802,4.071e+8,,8.690e-12,,4.071e+8,2.445e-13,3.303e-19
205.807,4.975e+8,,8.701e-12,,4.975e+8,2.446e-13,3.293e-19
205.812,5.404e+8,,8.713e-12,,5.404e+8,2.446e-13,3.282e-19
205.817,5.216e+8,,8.725e-12,,5.216e+8,2.446e-13,3.272e-19
205.822,4.474e+8,,8.737e-12,,4.474e+8,2.446e-13,3.261e-19
205.827,3.410e+8,,8.748e-12,,3.410e+8,2.447e-13,3.250e-19
205.832,2.310e+8,,8.760e-12,,2.310e+8,2.447e-13,3.240e-19
205.837,1.391e+8,,8.772e-12,,1.391e+8,2.447e-13,3.229e-19
205.842,7.438e+7,,8.784e-12,,7.438e+7,2.448e-13,3.219e-19
205.847,3.536e+7,,8.796e-12,,3.536e+7,2.448e-13,3.208e-19
205.852,1.494e+7,,8.807e-12,,1.494e+7,2.448e-13,3.198e-19
205.857,5.608e+6,,8.819e-12,,5.608e+6,2.448e-13,3.187e-19
205.862,1.871e+6,,8.831e-12,,1.871e+6,2.449e-13,3.176e-19
205.867,5.547e+5,,8.843e-12,,5.547e+5,2.449e-13,3.166e-19
205.872,1.461e+5,,8.854e-12,,1.461e+5,2.449e-13,3.155e-19
205.877,3.422e+4,,8.866e-12,,3.422e+4,2.449e-13,3.145e-19
205.882,7.119e+3,,8.878e-12,,7.119e+3,2.450e-13,3.134e-19
205.887,1.316e+3,,8.890e-12,,1.316e+3,2.450e-13,3.124e-19
205.892,2.163e+2,,8.902e-12,,2.163e+2,2.450e-13,3.113e-19
205.897,3.158e+1,,8.913e-12,,3.158e+1,2.451e-13,3.103e-19
205.902,4.098e+0,,8.925e-12,,4.098e+0,2.451e-13,3.092e-19
205.907,4.726e-1,,8.937e-12,,4.726e-1,2.451e-13,3.081e-19
205.912,4.843e-2,,8.949e-12,,4.843e-2,2.451e-13,3.071e-19
205.917,4.410e-3,,8.960e-12,,4.410e-3,2.452e-13,3.060e-19
205.922,3.569e-4,,8.972e-12,,3.569e-4,2.452e-13,3.050e-19
205.927,2.567e-5,,8.984e-12,,2.567e-5,2.452e-13,3.039e-19
205.932,1.640e-6,,8.996e-12,,1.640e-6,2.452e-13,3.029e-19
205.937,9.316e-8,,9.008e-12,,9.316e-8,2.453e-13,3.018e-19
205.942,4.702e-9,,9.019e-12,,4.702e-9,2.453e-13,3.007e-19
205.947,2.109e-10,,9.031e-12,,2.109e-10,2.453e-13,2.997e-19
206.087,2.461e-13,,9.361e-12,,2.066e-10,2.461e-13,2.701e-19
206.092,5.420e-12,,9.373e-12,,2.064e-10,5.420e-12,2.691e-19
206.097,1.061e-10,,9.384e-12,,2.063e-10,1.061e-10,2.680e-19
206.102,1.848e-9,,9.396e-12,,2.061e-10,1.848e-9,2.669e-19
206.107,2.860e-8,,9.408e-12,,2.060e-10,2.860e-8,2.659e-19
206.112,3.935e-7,,9.420e-12,,2.058e-10,3.935e-7,2.648e-19
206.117,4.815e-6,,9.432e-12,,2.057e-10,4.815e-6,2.638e-19
206.122,5.238e-5,,9.443e-12,,2.055e-10,5.238e-5,2.627e-19
206.127,5.065e-4,,9.455e-12,,2.054e-10,5.065e-4,2.617e-19
206.132,4.355e-3,,9.467e-12,,2.052e-10,4.355e-3,2.606e-19
206.137,3.329e-2,,9.479e-12,,2.051e-10,3.329e-2,2.596e-19
