Wavelength (nm),Sum(calc),Cu I (8.1e-2),Cu II (8.6e-1),Sn I (2.1e-3),Sn II (3.8e-2),Pb I (8.7e-4),Pb II (1.9e-2)
201.163,1.627e-11,,1.627e-11,,,,
201.168,4.280e-10,,4.280e-10,,,,
201.173,9.953e-9,,9.953e-9,,,,
201.178,2.046e-7,,2.046e-7,,,,
201.183,3.717e-6,,3.717e-6,,,,
201.188,5.970e-5,,5.970e-5,,,,
201.193,8.475e-4,,8.475e-4,,,,
201.198,1.063e-2,,1.063e-2,,,,
201.203,1.179e-1,,1.179e-1,,,,
201.208,1.156e+0,,1.156e+0,,,,
201.213,1.002e+1,,1.002e+1,,,,
201.218,7.676e+1,,7.676e+1,,,,
201.223,5.197e+2,,5.197e+2,,,,
201.228,3.110e+3,,3.110e+3,,,,
201.233,1.645e+4,,1.645e+4,,,,
201.238,7.693e+4,,7.693e+4,,,,
201.243,3.180e+5,,3.180e+5,,,,
201.248,1.162e+6,,1.162e+6,,,,
201.253,3.751e+6,,3.751e+6,,,,
201.258,1.071e+7,,1.071e+7,,,,
201.263,2.701e+7,,2.701e+7,,,,
201.268,6.024e+7,,6.024e+7,,,,
201.273,1.187e+8,,1.187e+8,,,,
201.278,2.069e+8,,2.069e+8,,,,
201.283,3.187e+8,,3.187e+8,,,,
201.288,4.338e+8,,4.338e+8,,,,
201.293,5.220e+8,,5.220e+8,,,,
201.298,5.553e+8,,5.553e+8,,,,
201.303,5.220e+8,,5.220e+8,,,,
201.308,4.338e+8,,4.338e+8,,,,
201.313,3.187e+8,,3.187e+8,,,,
201.318,2.069e+8,,2.069e+8,,,,
201.323,1.187e+8,,1.187e+8,,,,
201.329,5.182e+7,,5.182e+7,,,,
201.334,2.267e+7,,2.267e+7,,,,
201.339,8.767e+6,,8.767e+6,,,,
201.344,2.996e+6,,2.996e+6,,,,
201.349,9.053e+5,,9.053e+5,,,,
201.354,2.418e+5,,2.418e+5,,,,
201.359,5.707e+4,,5.707e+4,,,,
201.364,1.191e+4,,1.191e+4,,,,
201.369,2.196e+3,,2.196e+3,,,,
201.374,3.580e+2,,3.580e+2,,,,
201.379,5.159e+1,,5.159e+1,,,,
201.384,6.571e+0,,6.571e+0,,,,
201.389,7.398e-1,,7.398e-1,,,,
201.394,7.362e-2,,7.362e-2,,,,
201.399,6.476e-3,,6.476e-3,,,,
201.404,5.035e-4,,5.035e-4,,,,
201.409,3.460e-5,,3.460e-5,,,,
201.414,2.102e-6,,2.102e-6,,,,
201.419,1.129e-7,,1.129e-7,,,,
201.424,5.604e-9,,5.604e-9,,,,
201.429,6.278e-9,,6.278e-9,,,,
201.434,1.413e-7,,1.413e-7,,,,
201.439,2.812e-6,,2.812e-6,,,,
201.444,4.947e-5,,4.947e-5,,,,
201.449,7.697e-4,,7.697e-4,,,,
201.454,1.059e-2,,1.059e-2,,,,
201.459,1.288e-1,,1.288e-1,,,,
201.464,1.385e+0,,1.385e+0,,,,
201.469,1.317e+1,,1.317e+1,,,,
201.474,1.107e+2,,1.107e+2,,,,
201.479,8.233e+2,,8.233e+2,,,,
201.484,5.412e+3,,5.412e+3,,,,
201.489,3.146e+4,,3.146e+4,,,,
201.494,1.617e+5,,1.617e+5,,,,
201.499,7.346e+5,,7.346e+5,,,,
201.504,2.951e+6,,2.951e+6,,,,
201.509,1.049e+7,,1.049e+7,,,,
201.514,3.294e+7,,3.294e+7,,,,
201.519,9.148e+7,,9.148e+7,,,,
201.524,2.246e+8,,2.246e+8,,,,
201.529,4.878e+8,,4.878e+8,,,,
201.534,9.365e+8,,9.365e+8,,,,
201.539,1.590e+9,,1.590e+9,,,,
201.544,2.386e+9,,2.386e+9,,,,
201.549,3.167e+9,,3.167e+9,,,,
201.554,3.717e+9,,3.717e+9,,,,
201.559,3.857e+9,,3.857e+9,,,,
201.564,3.538e+9,,3.538e+9,,,,
201.569,2.870e+9,,2.870e+9,,,,
201.574,2.059e+9,,2.059e+9,,,,
201.579,1.306e+9,,1.306e+9,,,,
201.584,7.322e+8,,7.322e+8,,,,
201.589,3.630e+8,,3.630e+8,,,,
201.594,1.592e+8,,1.592e+8,,,,
201.599,6.170e+7,,6.170e+7,,,,
201.604,2.115e+7,,2.115e+7,,,,
201.609,6.409e+6,,6.409e+6,,,,
201.614,1.717e+6,,1.717e+6,,,,
201.619,4.069e+5,,4.069e+5,,,,
201.624,8.524e+4,,8.524e+4,,,,
201.629,1.579e+4,,1.579e+4,,,,
201.635,1.775e+3,,1.775e+3,,,,
201.640,2.507e+2,,2.507e+2,,,,
201.645,3.133e+1,,3.133e+1,,,,
201.650,3.461e+0,,3.461e+0,,,,
201.655,3.380e-1,,3.380e-1,,,,
201.660,2.919e-2,,2.919e-2,,,,
201.665,2.229e-3,,2.229e-3,,,,
201.670,1.505e-4,,1.505e-4,,,,
201.675,8.986e-6,,8.986e-6,,,,
201.680,4.743e-7,,4.743e-7,,,,
201.685,2.214e-8,,2.214e-8,,,,
202.066,2.317e-13,,1.460e-8,,,2.317e-13,
202.071,6.068e-12,,1.450e-8,,,6.068e-12,
202.076,1.406e-10,,1.440e-8,,,1.406e-10,
202.081,2.883e-9,,1.430e-8,,,2.883e-9,
202.086,5.231e-8,,1.420e-8,,,5.231e-8,
202.091,8.398e-7,,1.410e-8,,,8.398e-7,
202.096,1.193e-5,,1.400e-8,,,1.193e-5,
202.101,1.500e-4,,1.390e-8,,,1.500e-4,
202.106,1.669e-3,,1.380e-8,,,1.669e-3,
202.111,1.643e-2,,1.370e-8,,,1.643e-2,
202.116,1.431e-1,,1.361e-8,,,1.431e-1,
202.121,1.103e+0,,1.351e-8,,,1.103e+0,
202.126,7.523e+0,,1.341e-8,,,7.523e+0,
202.131,4.541e+1,,1.331e-8,,,4.541e+1,
202.136,2.425e+2,,1.321e-8,,,2.425e+2,
202.141,1.146e+3,,1.311e-8,,,1.146e+3,
202.146,4.794e+3,,1.301e-8,,,4.794e+3,
202.151,1.774e+4,,1.291e-8,,,1.774e+4,
202.156,5.809e+4,,1.281e-8,,,5.809e+4,
202.161,1.683e+5,,1.271e-8,,,1.683e+5,
202.166,4.317e+5,,1.262e-8,,,4.317e+5,
202.171,9.795e+5,,1.252e-8,,,9.795e+5,
202.176,1.967e+6,,1.242e-8,,,1.967e+6,
202.181,3.494e+6,,1.232e-8,,,3.494e+6,
202.186,5.494e+6,,1.222e-8,,,5.494e+6,
202.191,7.643e+6,,1.212e-8,,,7.643e+6,
202.196,9.409e+6,,1.202e-8,,,9.409e+6,
202.201,1.025e+7,,1.192e-8,,,1.025e+7,
202.206,9.881e+6,,1.182e-8,,,9.881e+6,
202.211,8.429e+6,,1.172e-8,,,8.429e+6,
202.216,6.362e+6,,1.163e-8,,,6.362e+6,
202.221,4.249e+6,,1.153e-8,,,4.249e+6,
202.226,2.512e+6,,1.143e-8,,,2.512e+6,
202.231,1.314e+6,,1.133e-8,,,1.314e+6,
202.236,6.079e+5,,1.123e-8,,,6.079e+5,
202.242,2.052e+5,,1.111e-8,,,2.052e+5,
202.247,7.258e+4,,1.101e-8,,,7.258e+4,
202.252,2.271e+4,,1.091e-8,,,2.271e+4,
202.257,6.289e+3,,1.081e-8,,,6.289e+3,
202.262,1.541e+3,,1.072e-8,,,1.541e+3,
202.267,3.341e+2,,1.062e-8,,,3.341e+2,
202.272,6.411e+1,,1.052e-8,,,6.411e+1,
202.277,1.088e+1,,1.042e-8,,,1.088e+1,
202.282,1.635e+0,,1.032e-8,,,1.635e+0,
202.287,2.174e-1,,1.022e-8,,,2.174e-1,
202.292,2.557e-2,,1.012e-8,,,2.557e-2,
202.297,2.662e-3,2.251e-11,1.002e-8,,,2.662e-3,
202.302,2.452e-4,1.201e-9,9.923e-9,,,2.452e-4,
202.307,2.002e-5,2.799e-8,9.824e-9,,,1.999e-5,
202.312,2.019e-6,5.772e-7,9.725e-9,,,1.442e-6,
202.317,1.063e-5,1.054e-5,9.626e-9,,,9.203e-8,
202.322,1.704e-4,1.703e-4,9.527e-9,,,5.198e-9,
202.327,2.437e-3,2.437e-3,9.428e-9,,,2.598e-10,
202.332,3.087e-2,3.087e-2,9.329e-9,,,1.149e-11,
202.337,3.462e-1,3.462e-1,9.230e-9,,,4.496e-13,
202.342,3.437e+0,3.437e+0,9.131e-9,,,4.504e-13,
202.347,3.020e+1,3.020e+1,9.032e-9,,,4.511e-13,
202.352,2.350e+2,2.350e+2,8.933e-9,,,4.518e-13,
202.357,1.618e+3,1.618e+3,8.834e-9,,,4.526e-13,
202.362,9.868e+3,9.868e+3,8.735e-9,,,4.533e-13,
202.367,5.326e+4,5.326e+4,8.636e-9,,,4.541e-13,
202.372,2.545e+5,2.545e+5,8.537e-9,,,4.548e-13,
202.377,1.076e+6,1.076e+6,8.438e-9,,,4.556e-13,
202.382,4.031e+6,4.031e+6,8.339e-9,,,4.563e-13,
202.387,1.336e+7,1.336e+7,8.240e-9,,,4.571e-13,
202.392,3.921e+7,3.921e+7,8.141e-9,,,4.578e-13,
202.397,1.019e+8,1.019e+8,8.042e-9,,,4.586e-13,
202.402,2.343e+8,2.343e+8,7.943e-9,,,4.593e-13,
202.407,4.770e+8,4.770e+8,7.844e-9,,,4.601e-13,
202.412,8.597e+8,8.597e+8,7.745e-9,,,4.608e-13,
202.417,1.372e+9,1.372e+9,7.646e-9,,,4.616e-13,
202.422,1.937e+9,1.937e+9,1.796e-7,,,4.623e-13,
202.427,2.423e+9,2.423e+9,3.735e-6,,,4.630e-13,
202.432,2.682e+9,2.682e+9,6.875e-5,,,4.638e-13,
202.437,2.628e+9,2.628e+9,1.120e-3,,,4.645e-13,
202.442,2.279e+9,2.279e+9,1.616e-2,,,4.653e-13,
202.447,1.750e+9,1.750e+9,2.064e-1,,,4.660e-13,
202.452,1.190e+9,1.190e+9,2.333e+0,,,4.668e-13,
202.457,7.161e+8,7.161e+8,2.335e+1,,,4.675e-13,
202.462,3.815e+8,3.815e+8,2.069e+2,,,4.683e-13,
202.467,1.799e+8,1.799e+8,1.623e+3,,,4.690e-13,
202.472,7.512e+7,7.511e+7,1.127e+4,,,4.698e-13,
202.477,2.783e+7,2.776e+7,6.927e+4,,,4.705e-13,
202.482,9.459e+6,9.082e+6,3.769e+5,,,4.713e-13,
202.487,4.446e+6,2.630e+6,1.816e+6,,,4.720e-13,
202.492,8.417e+6,6.744e+5,7.742e+6,,,4.728e-13,
202.497,2.938e+7,1.531e+5,2.923e+7,,,4.735e-13,
202.502,9.771e+7,3.075e+4,9.768e+7,,,4.742e-13,
202.507,2.890e+8,5.470e+3,2.890e+8,,,4.750e-13,
202.512,7.569e+8,8.612e+2,7.569e+8,,,4.757e-13,
202.517,1.755e+9,1.200e+2,1.755e+9,,,4.765e-13,
202.522,3.602e+9,1.481e+1,3.602e+9,,,4.772e-13,
202.527,6.544e+9,1.618e+0,6.544e+9,,,4.780e-13,
202.532,1.053e+10,1.564e-1,1.053e+10,,,4.787e-13,
202.537,1.499e+10,1.339e-2,1.499e+10,,,4.795e-13,
202.543,1.950e+10,5.967e-4,1.950e+10,,,4.804e-13,
202.548,2.124e+10,3.906e-5,2.124e+10,,,4.811e-13,
202.553,2.048e+10,2.263e-6,2.048e+10,,,4.819e-13,
202.558,1.748e+10,1.161e-7,1.748e+10,,,4.826e-13,
202.563,1.320e+10,5.271e-9,1.320e+10,,,4.834e-13,
202.568,8.832e+9,1.683e-10,8.832e+9,,,4.841e-13,
202.573,5.230e+9,1.700e-10,5.230e+9,,,4.849e-13,
202.578,2.741e+9,1.718e-10,2.741e+9,,,4.856e-13,
202.583,1.272e+9,1.735e-10,1.272e+9,,,4.863e-13,
202.588,5.225e+8,1.753e-10,5.225e+8,,,4.871e-13,
202.593,1.900e+8,1.770e-10,1.900e+8,,,4.878e-13,
202.598,6.117e+7,1.788e-10,6.117e+7,,,4.886e-13,
202.603,1.743e+7,1.805e-10,1.743e+7,,,4.893e-13,
202.608,4.398e+6,1.823e-10,4.398e+6,,,4.901e-13,
202.613,9.823e+5,1.840e-10,9.823e+5,,,4.908e-13,
202.618,1.942e+5,1.858e-10,1.942e+5,,,4.916e-13,
202.623,3.399e+4,1.876e-10,3.399e+4,,,4.923e-13,
202.628,5.270e+3,1.893e-10,5.270e+3,,,4.931e-13,
202.633,7.407e+2,1.911e-10,7.407e+2,,,4.938e-13,
202.638,2.078e+2,1.928e-10,2.078e+2,,,4.946e-13,
202.643,7.106e+2,1.946e-10,7.106e+2,,,4.953e-13,
202.648,3.625e+3,1.963e-10,3.625e+3,,,4.961e-13,
202.653,1.659e+4,1.981e-10,1.659e+4,,,4.968e-13,
202.658,6.721e+4,1.998e-10,6.721e+4,,,4.975e-13,
202.663,2.411e+5,2.016e-10,2.411e+5,,,4.983e-13,
202.668,7.661e+5,2.033e-10,7.661e+5,,,4.990e-13,
202.673,2.155e+6,2.051e-10,2.155e+6,,,4.998e-13,
202.678,5.368e+6,2.069e-10,5.368e+6,,,5.005e-13,
202.683,1.184e+7,2.086e-10,1.184e+7,,,5.013e-13,
202.688,2.312e+7,2.104e-10,2.312e+7,,,5.020e-13,
202.693,3.997e+7,2.121e-10,3.997e+7,,,5.028e-13,
202.698,6.119e+7,2.139e-10,6.119e+7,,,5.035e-13,
202.703,8.294e+7,2.156e-10,8.294e+7,,,5.043e-13,
202.708,9.955e+7,2.174e-10,9.955e+7,,,5.050e-13,
202.713,1.058e+8,2.191e-10,1.058e+8,,,5.058e-13,
202.718,9.955e+7,2.209e-10,9.955e+7,,,5.065e-13,
202.723,8.294e+7,2.227e-10,8.294e+7,,,5.073e-13,
202.728,6.119e+7,2.244e-10,6.119e+7,,,5.080e-13,
202.733,3.997e+7,2.262e-10,3.997e+7,,,5.088e-13,
202.738,2.312e+7,2.279e-10,2.312e+7,,,5.095e-13,
202.743,1.184e+7,2.297e-10,1.184e+7,,,5.102e-13,
202.748,5.368e+6,2.314e-10,5.368e+6,,,5.110e-13,
202.753,2.155e+6,2.332e-10,2.155e+6,,,5.117e-13,
202.758,7.661e+5,2.349e-10,7.661e+5,,,5.125e-13,
202.763,2.411e+5,2.367e-10,2.411e+5,,,5.132e-13,
202.768,6.721e+4,2.384e-10,6.721e+4,,,5.140e-13,
202.773,1.659e+4,2.402e-10,1.659e+4,,,5.147e-13,
202.778,3.624e+3,2.420e-10,3.624e+3,,,5.155e-13,
202.783,7.012e+2,2.437e-10,7.012e+2,,,5.162e-13,
202.788,1.201e+2,2.455e-10,1.201e+2,,,5.170e-13,
202.793,1.822e+1,2.472e-10,1.822e+1,,,5.177e-13,
202.798,2.447e+0,2.490e-10,2.447e+0,,,5.185e-13,
202.803,2.910e-1,2.507e-10,2.910e-1,,,5.192e-13,
202.808,3.064e-2,2.525e-10,3.064e-2,,,5.200e-13,
202.813,2.856e-3,2.542e-10,2.856e-3,,,5.207e-13,
202.818,2.358e-4,2.560e-10,2.358e-4,,,5.214e-13,
202.823,1.723e-5,2.577e-10,1.723e-5,,,5.222e-13,
202.828,1.115e-6,2.595e-10,1.115e-6,,,5.229e-13,
202.833,6.391e-8,2.613e-10,6.391e-8,,,5.237e-13,
202.838,3.243e-9,2.630e-10,3.243e-9,,,5.244e-13,
202.843,1.457e-10,2.648e-10,1.457e-10,,,5.252e-13,
202.859,2.530e-12,2.704e-10,2.530e-12,,,5.276e-13,
202.864,6.459e-11,2.721e-10,6.459e-11,,,5.283e-13,
202.869,1.460e-9,2.739e-10,1.460e-9,,,5.291e-13,
202.874,2.925e-8,2.756e-10,2.925e-8,,,5.298e-13,
202.879,5.188e-7,2.774e-10,5.188e-7,,,5.306e-13,
202.884,8.151e-6,2.792e-10,8.151e-6,,,5.313e-13,
202.889,1.134e-4,2.809e-10,1.134e-4,,,5.321e-13,
202.894,1.398e-3,2.827e-10,1.398e-3,,,5.328e-13,
202.899,1.526e-2,2.844e-10,1.526e-2,,,5.335e-13,
202.904,1.476e-1,2.862e-10,1.476e-1,,,5.343e-13,
202.909,1.264e+0,2.879e-10,1.264e+0,,,5.350e-13,
202.914,9.591e+0,2.897e-10,9.591e+0,,,5.358e-13,
202.919,6.445e+1,2.914e-10,6.445e+1,,,5.365e-13,
202.924,3.836e+2,2.932e-10,3.836e+2,,,5.373e-13,
202.929,2.022e+3,2.949e-10,2.022e+3,,,5.380e-13,
202.934,9.441e+3,2.967e-10,9.441e+3,,,5.388e-13,
202.939,3.905e+4,2.985e-10,3.905e+4,,,5.395e-13,
202.944,1.430e+5,3.002e-10,1.430e+5,,,5.403e-13,
202.949,4.641e+5,3.020e-10,4.641e+5,,,5.410e-13,
202.954,1.334e+6,3.037e-10,1.334e+6,,,5.418e-13,
202.959,3.395e+6,3.055e-10,3.395e+6,,,5.425e-13,
202.964,7.654e+6,3.072e-10,7.654e+6,,,5.433e-13,
202.969,1.528e+7,3.090e-10,1.528e+7,,,5.440e-13,
202.974,2.704e+7,3.107e-10,2.704e+7,,,5.447e-13,
202.979,4.236e+7,3.125e-10,4.236e+7,,,5.455e-13,
202.984,5.878e+7,3.142e-10,5.878e+7,,,5.462e-13,
202.989,7.224e+7,3.160e-10,7.224e+7,,,5.470e-13,
202.994,7.864e+7,3.178e-10,7.864e+7,,,5.477e-13,
202.999,7.583e+7,3.195e-10,7.583e+7,,,5.485e-13,
203.004,6.477e+7,3.213e-10,6.477e+7,,,5.492e-13,
203.009,4.900e+7,3.230e-10,4.900e+7,,,5.500e-13,
203.014,3.283e+7,3.248e-10,3.283e+7,,,5.507e-13,
203.019,1.948e+7,3.265e-10,1.948e+7,,,5.515e-13,
203.024,1.024e+7,3.283e-10,1.024e+7,,,5.522e-13,
203.029,4.769e+6,3.300e-10,4.769e+6,,,5.530e-13,
203.034,1.972e+6,3.318e-10,1.972e+6,,,5.537e-13,
203.039,7.447e+5,3.335e-10,7.447e+5,,,5.545e-13,
203.044,3.525e+5,3.353e-10,3.525e+5,,,5.552e-13,
203.049,5.507e+5,3.371e-10,5.507e+5,,,5.559e-13,
203.054,1.745e+6,3.388e-10,1.745e+6,,,5.567e-13,
203.059,5.470e+6,3.406e-10,5.470e+6,,,5.574e-13,
203.064,1.532e+7,3.423e-10,1.532e+7,,,5.582e-13,
203.069,3.802e+7,3.441e-10,3.802e+7,,,5.589e-13,
203.074,8.358e+7,3.458e-10,8.358e+7,,,5.597e-13,
203.079,1.628e+8,3.476e-10,1.628e+8,,,5.604e-13,
203.084,2.809e+8,3.493e-10,2.809e+8,,,5.612e-13,
203.089,4.293e+8,3.511e-10,4.293e+8,,,5.619e-13,
203.094,5.813e+8,3.529e-10,5.813e+8,,,5.627e-13,
203.099,6.972e+8,3.546e-10,6.972e+8,,,5.634e-13,
203.104,7.407e+8,3.564e-10,7.407e+8,,,5.642e-13,
203.109,6.972e+8,3.581e-10,6.972e+8,,,5.649e-13,
203.114,5.813e+8,3.599e-10,5.813e+8,,,5.657e-13,
203.119,4.293e+8,3.616e-10,4.293e+8,,,5.664e-13,
203.124,2.809e+8,3.634e-10,2.809e+8,,,5.672e-13,
203.129,1.628e+8,3.651e-10,1.628e+8,,,5.679e-13,
203.134,8.358e+7,3.669e-10,8.358e+7,,,5.686e-13,
203.139,3.802e+7,3.686e-10,3.802e+7,,,5.694e-13,
203.144,1.532e+7,3.704e-10,1.532e+7,,,5.701e-13,
203.150,4.384e+6,3.725e-10,4.384e+6,,,5.710e-13,
203.155,1.353e+6,3.743e-10,1.353e+6,,,5.718e-13,
203.160,3.699e+5,3.760e-10,3.699e+5,,,5.725e-13,
203.165,8.957e+4,3.778e-10,8.957e+4,,,5.733e-13,
203.170,1.921e+4,3.795e-10,1.921e+4,,,5.740e-13,
203.175,3.651e+3,3.813e-10,3.651e+3,,,5.748e-13,
203.180,6.147e+2,3.830e-10,6.147e+2,,,5.755e-13,
203.185,9.166e+1,3.848e-10,9.166e+1,,,5.763e-13,
203.190,1.211e+1,3.865e-10,1.211e+1,,,5.770e-13,
203.195,1.417e+0,3.883e-10,1.417e+0,,,5.778e-13,
203.200,1.469e-1,3.901e-10,1.469e-1,,,5.785e-13,
203.205,1.349e-2,3.918e-10,1.349e-2,,,5.792e-13,
203.210,1.097e-3,3.936e-10,1.097e-3,,,5.800e-13,
203.215,7.907e-5,3.953e-10,7.907e-5,,,5.807e-13,
203.220,5.047e-6,3.971e-10,5.047e-6,,,5.815e-13,
203.225,2.854e-7,3.988e-10,2.854e-7,,,5.822e-13,
203.230,1.430e-8,4.006e-10,1.430e-8,,,5.830e-13,
203.235,6.345e-10,4.023e-10,6.345e-10,,,5.837e-13,
203.450,5.681e-9,4.778e-10,5.681e-9,,,6.158e-13,
203.456,2.595e-7,4.799e-10,2.595e-7,,,6.167e-13,
203.461,5.492e-6,4.816e-10,5.492e-6,,,6.175e-13,
203.466,1.030e-4,4.834e-10,1.030e-4,,,6.182e-13,
203.471,1.712e-3,4.852e-10,1.712e-3,,,6.190e-13,
203.476,2.523e-2,4.869e-10,2.523e-2,,,6.197e-13,
203.481,3.295e-1,4.887e-10,3.295e-1,,,6.205e-13,
203.486,3.814e+0,4.904e-10,3.814e+0,,,6.212e-13,
203.491,3.913e+1,4.922e-10,3.913e+1,,,6.220e-13,
203.496,3.559e+2,4.939e-10,3.559e+2,,,6.227e-13,
203.501,2.869e+3,4.957e-10,2.869e+3,,,6.235e-13,
203.506,2.049e+4,4.974e-10,2.049e+4,,,6.242e-13,
203.511,1.298e+5,4.992e-10,1.298e+5,,,6.250e-13,
203.516,7.285e+5,5.009e-10,7.285e+5,,,6.257e-13,
203.521,3.624e+6,5.027e-10,3.624e+6,,,6.264e-13,
203.526,1.598e+7,5.045e-10,1.598e+7,,,6.272e-13,
203.531,6.247e+7,5.062e-10,6.247e+7,,,6.279e-13,
203.536,2.164e+8,5.080e-10,2.164e+8,,,6.287e-13,
203.541,6.646e+8,5.097e-10,6.646e+8,,,6.294e-13,
203.546,1.809e+9,5.115e-10,1.809e+9,,,6.302e-13,
203.551,4.364e+9,5.132e-10,4.364e+9,,,6.309e-13,
203.556,9.331e+9,5.150e-10,9.331e+9,,,6.317e-13,
203.561,1.768e+10,5.167e-10,1.768e+10,,,6.324e-13,
203.566,2.971e+10,5.185e-10,2.971e+10,,,6.332e-13,
203.571,4.424e+10,5.203e-10,4.424e+10,,,6.339e-13,
203.576,5.838e+10,5.220e-10,5.838e+10,,,6.347e-13,
203.581,6.829e+10,5.238e-10,6.829e+10,,,6.354e-13,
203.586,7.081e+10,5.255e-10,7.081e+10,,,6.362e-13,
203.591,6.508e+10,5.273e-10,6.508e+10,,,6.369e-13,
203.596,5.301e+10,5.290e-10,5.301e+10,,,6.376e-13,
203.601,3.827e+10,5.308e-10,3.827e+10,,,6.384e-13,
203.606,2.449e+10,5.325e-10,2.449e+10,,,6.391e-13,
203.611,1.389e+10,5.343e-10,1.389e+10,,,6.399e-13,
203.616,6.985e+9,5.360e-10,6.985e+9,,,6.406e-13,
203.621,3.113e+9,5.378e-10,3.113e+9,,,6.414e-13,
203.626,1.230e+9,5.396e-10,1.230e+9,,,6.421e-13,
203.631,4.305e+8,5.413e-10,4.305e+8,,,6.429e-13,
203.636,1.337e+8,5.431e-10,1.337e+8,,,6.436e-13,
203.641,3.727e+7,5.448e-10,3.727e+7,,,6.444e-13,
203.646,1.123e+7,5.466e-10,1.123e+7,,,6.451e-13,
203.651,1.106e+7,5.483e-10,1.106e+7,,,6.459e-13,
203.656,3.457e+7,5.501e-10,3.457e+7,,,6.466e-13,
203.661,1.181e+8,5.518e-10,1.181e+8,,,6.474e-13,
203.666,3.709e+8,5.536e-10,3.709e+8,,,6.481e-13,
203.671,1.052e+9,5.553e-10,1.052e+9,,,6.488e-13,
203.676,2.675e+9,5.571e-10,2.675e+9,,,6.496e-13,
203.681,6.074e+9,5.589e-10,6.074e+9,,,6.503e-13,
203.686,1.228e+10,5.606e-10,1.228e+10,,,6.511e-13,
203.691,2.207e+10,5.624e-10,2.207e+10,,,6.518e-13,
203.696,3.522e+10,5.641e-10,3.522e+10,,,6.526e-13,
203.701,4.987e+10,5.659e-10,4.987e+10,,,6.533e-13,
203.706,6.265e+10,5.676e-10,6.265e+10,,,6.541e-13,
203.711,6.978e+10,5.694e-10,6.978e+10,,,6.548e-13,
203.716,6.892e+10,5.711e-10,6.892e+10,,,6.556e-13,
203.721,6.036e+10,5.729e-10,6.036e+10,,,6.563e-13,
203.726,4.686e+10,5.746e-10,4.686e+10,,,6.571e-13,
203.731,3.225e+10,5.764e-10,3.225e+10,,,6.578e-13,
203.736,1.968e+10,5.782e-10,1.968e+10,,,6.586e-13,
203.741,1.064e+10,5.799e-10,1.064e+10,,,6.593e-13,
203.746,5.104e+9,5.817e-10,5.104e+9,,,6.601e-13,
203.751,2.170e+9,5.834e-10,2.170e+9,,,6.608e-13,
203.757,6.630e+8,5.855e-10,6.630e+8,,,6.617e-13,
203.762,2.162e+8,5.873e-10,2.162e+8,,,6.624e-13,
203.767,6.250e+7,5.890e-10,6.250e+7,,,6.632e-13,
203.772,1.602e+7,5.908e-10,1.602e+7,,,6.639e-13,
203.777,3.639e+6,5.925e-10,3.639e+6,,,6.647e-13,
203.782,7.330e+5,5.943e-10,7.330e+5,,,6.654e-13,
203.787,1.309e+5,5.961e-10,1.309e+5,,,6.662e-13,
203.792,2.071e+4,5.978e-10,2.071e+4,,,6.669e-13,
203.797,2.906e+3,5.996e-10,2.906e+3,,,6.677e-13,
203.802,3.615e+2,6.013e-10,3.615e+2,,,6.684e-13,
203.807,3.986e+1,6.031e-10,3.986e+1,,,6.692e-13,
203.812,3.896e+0,6.048e-10,3.896e+0,,,6.699e-13,
203.817,3.376e-1,6.066e-10,3.376e-1,,,6.707e-13,
203.822,2.593e-2,6.083e-10,2.593e-2,,,6.714e-13,
203.827,1.766e-3,6.101e-10,1.766e-3,,,6.721e-13,
203.832,1.066e-4,6.118e-10,1.066e-4,,,6.729e-13,
203.837,5.705e-6,6.136e-10,5.705e-6,,,6.736e-13,
203.842,2.706e-7,6.154e-10,2.706e-7,,,6.744e-13,
203.847,1.138e-8,6.171e-10,1.138e-8,,,6.751e-13,
204.248,6.395e-8,7.578e-10,6.395e-8,,,7.350e-13,
204.253,1.420e-6,7.596e-10,1.420e-6,,,7.358e-13,
204.258,2.797e-5,7.613e-10,2.797e-5,,,7.365e-13,
204.263,4.888e-4,7.631e-10,4.888e-4,,,7.373e-13,
204.268,7.579e-3,7.649e-10,7.579e-3,,,7.380e-13,
204.273,1.042e-1,7.666e-10,1.042e-1,,,7.388e-13,
204.278,1.272e+0,7.684e-10,1.272e+0,,,7.395e-13,
204.283,1.377e+1,7.701e-10,1.377e+1,,,7.403e-13,
204.288,1.323e+2,7.719e-10,1.323e+2,,,7.410e-13,
204.293,1.127e+3,7.736e-10,1.127e+3,,,7.418e-13,
204.298,8.524e+3,7.754e-10,8.524e+3,,,7.425e-13,
204.303,5.717e+4,7.771e-10,5.717e+4,,,7.432e-13,
204.308,3.402e+5,7.789e-10,3.402e+5,,,7.440e-13,
204.313,1.796e+6,7.807e-10,1.796e+6,,,7.447e-13,
204.318,8.413e+6,7.824e-10,8.413e+6,,,7.455e-13,
204.323,3.496e+7,7.842e-10,3.496e+7,,,7.462e-13,
204.328,1.289e+8,7.859e-10,1.289e+8,,,7.470e-13,
204.333,4.216e+8,7.877e-10,4.216e+8,,,7.477e-13,
204.338,1.223e+9,7.894e-10,1.223e+9,,,7.485e-13,
204.343,3.149e+9,7.912e-10,3.149e+9,,,7.492e-13,
204.348,7.193e+9,7.929e-10,7.193e+9,,,7.500e-13,
204.353,1.458e+10,7.947e-10,1.458e+10,,,7.507e-13,
204.358,2.620e+10,7.964e-10,2.620e+10,,,7.515e-13,
204.364,4.523e+10,7.985e-10,4.523e+10,,,7.524e-13,
204.369,6.248e+10,8.003e-10,6.248e+10,,,7.531e-13,
204.374,7.658e+10,8.021e-10,7.658e+10,,,7.538e-13,
204.379,8.327e+10,8.038e-10,8.327e+10,,,7.546e-13,
204.384,8.034e+10,8.056e-10,8.034e+10,,,7.553e-13,
204.389,6.876e+10,8.073e-10,6.876e+10,,,7.561e-13,
204.394,5.221e+10,8.091e-10,5.221e+10,,,7.568e-13,
204.399,3.517e+10,8.108e-10,3.517e+10,,,7.576e-13,
204.404,2.102e+10,8.126e-10,2.102e+10,,,7.583e-13,
204.409,1.115e+10,8.143e-10,1.115e+10,,,7.591e-13,
204.414,5.244e+9,8.161e-10,5.244e+9,,,7.598e-13,
204.419,2.189e+9,8.179e-10,2.189e+9,,,7.606e-13,
