Wavelength (nm),Sum(calc),Mn I (1.3e-2),Mn II (3.9e-1),Cu I (5.2e-2),Cu II (5.5e-1)
200.048,8.304e-15,,8.304e-15,,
200.053,2.698e-13,,2.698e-13,,
200.058,7.737e-12,,7.737e-12,,
200.063,1.958e-10,,1.958e-10,,
200.068,4.376e-9,,4.376e-9,,
200.073,8.632e-8,,8.632e-8,,
200.078,1.503e-6,,1.503e-6,,
200.083,2.310e-5,,2.310e-5,,
200.088,3.133e-4,,3.133e-4,,
200.093,3.752e-3,,3.752e-3,,
200.098,3.966e-2,,3.966e-2,,
200.103,3.700e-1,,3.700e-1,,
200.108,3.047e+0,,3.047e+0,,
200.113,2.215e+1,,2.215e+1,,
200.118,1.422e+2,,1.422e+2,,
200.123,8.053e+2,,8.053e+2,,
200.128,4.027e+3,,4.027e+3,,
200.133,1.777e+4,,1.777e+4,,
200.138,6.924e+4,,6.924e+4,,
200.143,2.381e+5,,2.381e+5,,
200.148,7.227e+5,,7.227e+5,,
200.153,1.937e+6,,1.937e+6,,
200.158,4.580e+6,,4.580e+6,,
200.163,9.563e+6,,9.563e+6,,
200.168,1.762e+7,,1.762e+7,,
200.173,2.867e+7,,2.867e+7,,
200.178,4.117e+7,,4.117e+7,,
200.183,5.218e+7,,5.218e+7,,
200.188,5.838e+7,,5.838e+7,,
200.193,5.766e+7,,5.766e+7,,
200.198,5.026e+7,,5.026e+7,,
200.203,3.868e+7,,3.868e+7,,
200.208,2.627e+7,,2.627e+7,,
200.213,1.575e+7,,1.575e+7,,
200.218,8.337e+6,,8.337e+6,,
200.223,3.895e+6,,3.895e+6,,
200.227,1.937e+6,,1.937e+6,,
200.232,7.227e+5,,7.227e+5,,
200.237,2.381e+5,,2.381e+5,,
200.242,6.924e+4,,6.924e+4,,
200.247,1.777e+4,,1.777e+4,,
200.252,4.027e+3,,4.027e+3,,
200.257,8.053e+2,,8.053e+2,,
200.262,1.422e+2,,1.422e+2,,
200.267,2.215e+1,,2.215e+1,,
200.272,3.047e+0,,3.047e+0,,
200.277,3.700e-1,,3.700e-1,,
200.282,3.966e-2,,3.966e-2,,
200.287,3.752e-3,,3.752e-3,,
200.292,3.133e-4,,3.133e-4,,
200.297,2.310e-5,,2.310e-5,,
200.302,1.503e-6,,1.503e-6,,
200.307,8.632e-8,,8.632e-8,,
200.312,4.376e-9,,4.376e-9,,
200.317,1.958e-10,,1.958e-10,,
200.322,7.737e-12,,7.737e-12,,
200.327,2.698e-13,,2.698e-13,,
201.156,8.673e-14,,7.281e-13,,8.673e-14
201.161,2.712e-12,,7.309e-13,,2.712e-12
201.166,7.496e-11,,7.336e-13,,7.496e-11
201.171,1.831e-9,,7.364e-13,,1.831e-9
201.176,3.955e-8,,7.392e-13,,3.955e-8
201.181,7.550e-7,,7.419e-13,,7.550e-7
201.186,1.274e-5,,7.447e-13,,1.274e-5
201.191,1.900e-4,,7.474e-13,,1.900e-4
201.196,2.505e-3,,7.502e-13,,2.505e-3
201.201,2.918e-2,,7.530e-13,,2.918e-2
201.206,3.006e-1,,7.557e-13,,3.006e-1
201.211,2.737e+0,,7.585e-13,,2.737e+0
201.216,2.202e+1,,7.613e-13,,2.202e+1
201.221,1.567e+2,,7.640e-13,,1.567e+2
201.226,9.849e+2,,7.668e-13,,9.849e+2
201.231,5.474e+3,,7.696e-13,,5.474e+3
201.236,2.689e+4,,7.723e-13,,2.689e+4
201.241,1.168e+5,,7.751e-13,,1.168e+5
201.246,4.482e+5,,7.779e-13,,4.482e+5
201.251,1.520e+6,,7.806e-13,,1.520e+6
201.256,4.559e+6,,7.834e-13,,4.559e+6
201.261,1.209e+7,,7.861e-13,,1.209e+7
201.266,2.831e+7,,7.889e-13,,2.831e+7
201.271,5.864e+7,,7.917e-13,,5.864e+7
201.276,1.073e+8,,7.944e-13,,1.073e+8
201.281,1.737e+8,,7.972e-13,,1.737e+8
201.286,2.484e+8,,8.000e-13,,2.484e+8
201.291,3.140e+8,,8.027e-13,,3.140e+8
201.296,3.509e+8,,8.055e-13,,3.509e+8
201.301,3.466e+8,,8.083e-13,,3.466e+8
201.306,3.026e+8,,8.110e-13,,3.026e+8
201.311,2.336e+8,,8.138e-13,,2.336e+8
201.316,1.593e+8,,8.166e-13,,1.593e+8
201.321,9.606e+7,,8.193e-13,,9.606e+7
201.326,5.120e+7,,8.221e-13,,5.120e+7
201.331,2.412e+7,,8.248e-13,,2.412e+7
201.336,1.004e+7,,8.276e-13,,1.004e+7
201.341,3.697e+6,,8.304e-13,,3.697e+6
201.346,1.203e+6,,8.331e-13,,1.203e+6
201.351,3.459e+5,,8.359e-13,,3.459e+5
201.356,8.791e+4,,8.387e-13,,8.791e+4
201.361,1.975e+4,,8.414e-13,,1.975e+4
201.366,3.923e+3,,8.442e-13,,3.923e+3
201.371,6.887e+2,,8.470e-13,,6.887e+2
201.376,1.069e+2,,8.497e-13,,1.069e+2
201.381,1.466e+1,,8.525e-13,,1.466e+1
201.386,1.777e+0,,8.553e-13,,1.777e+0
201.391,1.904e-1,,8.580e-13,,1.904e-1
201.396,1.804e-2,,8.608e-13,,1.804e-2
201.401,1.510e-3,,8.635e-13,,1.510e-3
201.406,1.118e-4,,8.663e-13,,1.118e-4
201.411,7.311e-6,,8.691e-13,,7.311e-6
201.416,4.227e-7,,8.718e-13,,4.227e-7
201.421,2.163e-8,,8.746e-13,,2.163e-8
201.426,1.559e-9,,8.774e-13,,1.559e-9
201.431,1.417e-8,,8.801e-13,,1.417e-8
201.436,3.028e-7,,8.829e-13,,3.028e-7
201.441,5.735e-6,,8.857e-13,,5.735e-6
201.446,9.607e-5,,8.884e-13,,9.607e-5
201.451,1.423e-3,,8.912e-13,,1.423e-3
201.456,1.863e-2,,8.940e-13,,1.863e-2
201.461,2.157e-1,,8.967e-13,,2.157e-1
201.466,2.209e+0,,8.995e-13,,2.209e+0
201.471,2.000e+1,,9.022e-13,,2.000e+1
201.476,1.600e+2,,9.050e-13,,1.600e+2
201.481,1.133e+3,,9.078e-13,,1.133e+3
201.486,7.088e+3,,9.105e-13,,7.088e+3
201.491,3.922e+4,,9.133e-13,,3.922e+4
201.496,1.919e+5,,9.161e-13,,1.919e+5
201.501,8.300e+5,,9.188e-13,,8.300e+5
201.506,3.175e+6,,9.216e-13,,3.175e+6
201.511,1.074e+7,,9.244e-13,,1.074e+7
201.516,3.210e+7,,9.271e-13,,3.210e+7
201.521,8.488e+7,,9.299e-13,,8.488e+7
201.526,1.984e+8,,9.327e-13,,1.984e+8
201.531,4.102e+8,,9.354e-13,,4.102e+8
201.536,7.497e+8,,9.382e-13,,7.497e+8
201.541,1.212e+9,,9.409e-13,,1.212e+9
201.546,1.731e+9,,9.437e-13,,1.731e+9
201.551,2.187e+9,,9.465e-13,,2.187e+9
201.556,2.444e+9,,9.492e-13,,2.444e+9
201.561,2.414e+9,,9.520e-13,,2.414e+9
201.566,2.108e+9,,9.548e-13,,2.108e+9
201.571,1.628e+9,,9.575e-13,,1.628e+9
201.576,1.112e+9,,9.603e-13,,1.112e+9
201.581,6.711e+8,,9.631e-13,,6.711e+8
201.586,3.583e+8,,9.658e-13,,3.583e+8
201.591,1.691e+8,,9.686e-13,,1.691e+8
201.596,7.057e+7,,9.714e-13,,7.057e+7
201.601,2.604e+7,,9.741e-13,,2.604e+7
201.606,8.497e+6,,9.769e-13,,8.497e+6
201.611,2.452e+6,,9.796e-13,,2.452e+6
201.616,6.254e+5,,9.824e-13,,6.254e+5
201.621,1.411e+5,,9.852e-13,,1.411e+5
201.626,2.813e+4,,9.879e-13,,2.813e+4
201.631,4.960e+3,,9.907e-13,,4.960e+3
201.636,7.734e+2,,9.935e-13,,7.734e+2
201.641,1.066e+2,,9.962e-13,,1.066e+2
201.646,1.300e+1,,9.990e-13,,1.300e+1
201.651,1.401e+0,,1.002e-12,,1.401e+0
201.656,1.335e-1,,1.005e-12,,1.335e-1
201.661,1.125e-2,,1.007e-12,,1.125e-2
201.666,8.381e-4,,1.010e-12,,8.381e-4
201.671,5.522e-5,,1.013e-12,,5.522e-5
201.676,3.216e-6,,1.016e-12,,3.216e-6
201.681,1.656e-7,,1.018e-12,,1.656e-7
201.686,7.544e-9,,1.021e-12,,7.544e-9
201.691,3.037e-10,,1.024e-12,,3.037e-10
201.696,1.081e-11,,1.027e-12,,1.081e-11
202.290,1.224e-13,,1.355e-12,1.224e-13,4.167e-11
202.295,7.613e-12,,1.358e-12,7.613e-12,4.193e-11
202.300,2.104e-10,,1.361e-12,2.104e-10,4.219e-11
202.305,5.146e-9,,1.363e-12,5.146e-9,4.245e-11
202.310,1.114e-7,,1.366e-12,1.114e-7,4.271e-11
202.315,2.136e-6,,1.369e-12,2.136e-6,4.297e-11
202.320,3.625e-5,,1.372e-12,3.625e-5,4.323e-11
202.325,5.446e-4,,1.374e-12,5.446e-4,4.349e-11
202.330,7.243e-3,,1.377e-12,7.243e-3,4.375e-11
202.335,8.528e-2,,1.380e-12,8.528e-2,4.401e-11
202.340,8.888e-1,,1.383e-12,8.888e-1,4.427e-11
202.345,8.201e+0,,1.385e-12,8.201e+0,4.452e-11
202.350,6.699e+1,,1.388e-12,6.699e+1,4.478e-11
202.355,4.844e+2,,1.391e-12,4.844e+2,4.504e-11
202.360,3.101e+3,,1.394e-12,3.101e+3,4.530e-11
202.365,1.758e+4,,1.396e-12,1.758e+4,4.556e-11
202.370,8.817e+4,,1.399e-12,8.817e+4,4.582e-11
202.375,3.916e+5,,1.402e-12,3.916e+5,4.608e-11
202.380,1.540e+6,,1.405e-12,1.540e+6,4.634e-11
202.385,5.359e+6,,1.408e-12,5.359e+6,4.660e-11
202.390,1.651e+7,,1.410e-12,1.651e+7,4.686e-11
202.395,4.504e+7,,1.413e-12,4.504e+7,4.712e-11
202.400,1.088e+8,,1.416e-12,1.088e+8,4.738e-11
202.405,2.325e+8,,1.419e-12,2.325e+8,4.764e-11
202.410,4.399e+8,,1.421e-12,4.399e+8,4.790e-11
202.415,7.370e+8,,1.424e-12,7.370e+8,1.334e-9
202.420,1.093e+9,,1.427e-12,1.093e+9,3.291e-8
202.425,1.435e+9,,1.430e-12,1.435e+9,7.186e-7
202.430,1.668e+9,,1.432e-12,1.668e+9,1.389e-5
202.435,1.716e+9,,1.435e-12,1.716e+9,2.376e-4
202.440,1.563e+9,,1.438e-12,1.563e+9,3.599e-3
202.445,1.260e+9,,1.441e-12,1.260e+9,4.826e-2
202.450,8.994e+8,,1.443e-12,8.994e+8,5.729e-1
202.455,5.683e+8,,1.446e-12,5.683e+8,6.020e+0
202.460,3.179e+8,,1.449e-12,3.179e+8,5.600e+1
202.465,1.574e+8,,1.452e-12,1.574e+8,4.612e+2
202.470,6.900e+7,,1.455e-12,6.900e+7,3.362e+3
202.475,2.679e+7,,1.457e-12,2.677e+7,2.170e+4
202.480,9.321e+6,,1.460e-12,9.197e+6,1.240e+5
202.485,3.424e+6,,1.463e-12,2.797e+6,6.270e+5
202.490,3.560e+6,,1.466e-12,7.529e+5,2.807e+6
202.495,1.131e+7,,1.468e-12,1.794e+5,1.113e+7
202.500,3.908e+7,,1.471e-12,3.785e+4,3.905e+7
202.505,1.213e+8,,1.474e-12,7.068e+3,1.213e+8
202.510,3.335e+8,,1.477e-12,1.168e+3,3.335e+8
202.515,8.119e+8,,1.479e-12,1.710e+2,8.119e+8
202.520,1.750e+9,,1.482e-12,2.215e+1,1.750e+9
202.525,3.338e+9,,1.485e-12,2.541e+0,3.338e+9
202.530,5.638e+9,,1.488e-12,2.579e-1,5.638e+9
202.535,8.429e+9,,1.490e-12,2.318e-2,8.429e+9
202.540,1.116e+10,,1.493e-12,1.844e-3,1.116e+10
202.545,1.307e+10,,1.496e-12,1.299e-4,1.307e+10
202.550,1.356e+10,,1.499e-12,8.096e-6,1.356e+10
202.555,1.245e+10,,1.502e-12,4.468e-7,1.245e+10
202.559,1.065e+10,,1.504e-12,4.031e-8,1.065e+10
202.564,7.853e+9,,1.507e-12,1.786e-9,7.853e+9
202.569,5.126e+9,,1.509e-12,7.008e-11,5.126e+9
202.574,2.962e+9,,1.512e-12,1.944e-12,2.962e+9
202.579,1.515e+9,,1.515e-12,1.972e-12,1.515e+9
202.584,6.862e+8,,1.518e-12,2.001e-12,6.862e+8
202.589,2.751e+8,,1.520e-12,2.029e-12,2.751e+8
202.594,9.763e+7,,1.523e-12,2.058e-12,9.763e+7
202.599,3.067e+7,,1.526e-12,2.086e-12,3.067e+7
202.604,8.531e+6,,1.529e-12,2.114e-12,8.531e+6
202.609,2.101e+6,,1.531e-12,2.143e-12,2.101e+6
202.614,4.578e+5,,1.534e-12,2.171e-12,4.578e+5
202.619,8.834e+4,,1.537e-12,2.199e-12,8.834e+4
202.624,1.509e+4,,1.540e-12,2.228e-12,1.509e+4
202.629,2.284e+3,,1.542e-12,2.256e-12,2.284e+3
202.634,3.226e+2,,1.545e-12,2.284e-12,3.226e+2
202.639,1.464e+2,,1.548e-12,2.313e-12,1.464e+2
202.644,6.315e+2,,1.551e-12,2.341e-12,6.315e+2
202.649,3.167e+3,,1.554e-12,2.370e-12,3.167e+3
202.654,1.414e+4,,1.556e-12,2.398e-12,1.414e+4
202.659,5.593e+4,,1.559e-12,2.426e-12,5.593e+4
202.664,1.959e+5,,1.562e-12,2.455e-12,1.959e+5
202.669,6.073e+5,,1.565e-12,2.483e-12,6.073e+5
202.674,1.667e+6,,1.567e-12,2.511e-12,1.667e+6
202.679,4.053e+6,,1.570e-12,2.540e-12,4.053e+6
202.684,8.723e+6,,1.573e-12,2.568e-12,8.723e+6
202.689,1.662e+7,,1.576e-12,2.597e-12,1.662e+7
202.694,2.805e+7,,1.578e-12,2.625e-12,2.805e+7
202.699,4.191e+7,,1.581e-12,2.653e-12,4.191e+7
202.704,5.545e+7,,1.584e-12,2.682e-12,5.545e+7
202.709,6.495e+7,,1.587e-12,2.710e-12,6.495e+7
202.714,6.736e+7,,1.589e-12,2.738e-12,6.736e+7
202.719,6.186e+7,,1.592e-12,2.767e-12,6.186e+7
202.724,5.030e+7,,1.595e-12,2.795e-12,5.030e+7
202.729,3.622e+7,,1.598e-12,2.823e-12,3.622e+7
202.734,2.309e+7,,1.601e-12,2.852e-12,2.309e+7
202.739,1.303e+7,,1.603e-12,2.880e-12,1.303e+7
202.744,6.514e+6,,1.606e-12,2.909e-12,6.514e+6
202.749,2.883e+6,,1.609e-12,2.937e-12,2.883e+6
202.754,1.129e+6,,1.612e-12,2.965e-12,1.129e+6
202.759,3.919e+5,,1.614e-12,2.994e-12,3.919e+5
202.764,1.204e+5,,1.617e-12,3.022e-12,1.204e+5
202.769,3.274e+4,,1.620e-12,3.050e-12,3.274e+4
202.774,7.886e+3,,1.623e-12,3.079e-12,7.886e+3
202.779,1.682e+3,,1.625e-12,3.107e-12,1.682e+3
202.784,3.176e+2,,1.628e-12,3.136e-12,3.176e+2
202.789,5.309e+1,,1.631e-12,3.164e-12,5.309e+1
202.794,7.859e+0,,1.634e-12,3.192e-12,7.859e+0
202.799,1.030e+0,,1.636e-12,3.221e-12,1.030e+0
202.804,1.196e-1,,1.639e-12,3.249e-12,1.196e-1
202.809,1.229e-2,,1.642e-12,3.277e-12,1.229e-2
202.814,1.118e-3,,1.645e-12,3.306e-12,1.118e-3
202.819,9.006e-5,,1.647e-12,3.334e-12,9.006e-5
202.824,6.425e-6,,1.650e-12,3.362e-12,6.425e-6
202.829,4.058e-7,,1.653e-12,3.391e-12,4.058e-7
202.834,2.269e-8,,1.656e-12,3.419e-12,2.269e-8
202.839,1.124e-9,,1.659e-12,3.448e-12,1.124e-9
202.844,4.927e-11,,1.661e-12,3.476e-12,4.927e-11
202.849,1.913e-12,,1.664e-12,3.504e-12,1.913e-12
202.854,1.218e-13,,1.667e-12,3.533e-12,1.218e-13
202.859,1.615e-12,,1.670e-12,3.561e-12,1.615e-12
202.864,4.123e-11,,1.672e-12,3.589e-12,4.123e-11
202.869,9.321e-10,,1.675e-12,3.618e-12,9.321e-10
202.874,1.867e-8,,1.678e-12,3.646e-12,1.867e-8
202.879,3.311e-7,,1.681e-12,3.675e-12,3.311e-7
202.884,5.202e-6,,1.683e-12,3.703e-12,5.202e-6
202.889,7.240e-5,,1.686e-12,3.731e-12,7.240e-5
202.894,8.924e-4,,1.689e-12,3.760e-12,8.924e-4
202.899,9.743e-3,,1.692e-12,3.788e-12,9.743e-3
202.904,9.421e-2,,1.694e-12,3.816e-12,9.421e-2
202.909,8.069e-1,,1.697e-12,3.845e-12,8.069e-1
202.914,6.122e+0,,1.700e-12,3.873e-12,6.122e+0
202.919,4.114e+1,,1.703e-12,3.901e-12,4.114e+1
202.924,2.448e+2,,1.706e-12,3.930e-12,2.448e+2
202.929,1.291e+3,,1.708e-12,3.958e-12,1.291e+3
202.934,6.026e+3,,1.711e-12,3.987e-12,6.026e+3
202.939,2.492e+4,,1.714e-12,4.015e-12,2.492e+4
202.944,9.130e+4,,1.717e-12,4.043e-12,9.130e+4
202.949,2.962e+5,,1.719e-12,4.072e-12,2.962e+5
202.954,8.513e+5,,1.722e-12,4.100e-12,8.513e+5
202.959,2.167e+6,,1.725e-12,4.128e-12,2.167e+6
202.964,4.886e+6,,1.728e-12,4.157e-12,4.886e+6
202.969,9.756e+6,,1.730e-12,4.185e-12,9.756e+6
202.974,1.726e+7,,1.733e-12,4.214e-12,1.726e+7
202.979,2.704e+7,,1.736e-12,4.242e-12,2.704e+7
202.984,3.752e+7,,1.739e-12,4.270e-12,3.752e+7
202.989,4.611e+7,,1.741e-12,4.299e-12,4.611e+7
202.994,5.020e+7,,1.744e-12,4.327e-12,5.020e+7
202.999,4.840e+7,,1.747e-12,4.355e-12,4.840e+7
203.004,4.134e+7,,1.750e-12,4.384e-12,4.134e+7
203.009,3.127e+7,,1.753e-12,4.412e-12,3.127e+7
203.014,2.095e+7,,1.755e-12,4.440e-12,2.095e+7
203.019,1.244e+7,,1.758e-12,4.469e-12,1.244e+7
203.024,6.537e+6,,1.761e-12,4.497e-12,6.537e+6
203.029,3.044e+6,,1.764e-12,4.526e-12,3.044e+6
203.034,1.258e+6,,1.766e-12,4.554e-12,1.258e+6
203.039,4.753e+5,,1.769e-12,4.582e-12,4.753e+5
203.044,2.250e+5,,1.772e-12,4.611e-12,2.250e+5
203.049,3.515e+5,,1.775e-12,4.639e-12,3.515e+5
203.054,1.114e+6,,1.777e-12,4.667e-12,1.114e+6
203.059,3.492e+6,,1.780e-12,4.696e-12,3.492e+6
203.064,9.777e+6,,1.783e-12,4.724e-12,9.777e+6
203.069,2.427e+7,,1.786e-12,4.753e-12,2.427e+7
203.074,5.335e+7,,1.788e-12,4.781e-12,5.335e+7
203.079,1.039e+8,,1.791e-12,4.809e-12,1.039e+8
203.084,1.793e+8,,1.794e-12,4.838e-12,1.793e+8
203.089,2.740e+8,,1.797e-12,4.866e-12,2.740e+8
203.094,3.710e+8,,1.800e-12,4.894e-12,3.710e+8
203.099,4.450e+8,,1.802e-12,4.923e-12,4.450e+8
203.104,4.728e+8,,1.805e-12,4.951e-12,4.728e+8
203.109,4.450e+8,,1.808e-12,4.979e-12,4.450e+8
203.114,3.710e+8,,1.811e-12,5.008e-12,3.710e+8
203.119,2.740e+8,,1.813e-12,5.036e-12,2.740e+8
203.124,1.793e+8,,1.816e-12,5.065e-12,1.793e+8
203.129,1.039e+8,,1.819e-12,5.093e-12,1.039e+8
203.134,5.335e+7,,1.822e-12,5.121e-12,5.335e+7
203.139,2.427e+7,,1.824e-12,5.150e-12,2.427e+7
203.144,9.776e+6,,1.827e-12,5.178e-12,9.776e+6
203.149,3.489e+6,,1.830e-12,5.206e-12,3.489e+6
203.154,1.103e+6,,1.833e-12,5.235e-12,1.103e+6
203.159,3.090e+5,,1.835e-12,5.263e-12,3.090e+5
203.164,7.666e+4,,1.838e-12,5.292e-12,7.666e+4
203.169,1.685e+4,,1.841e-12,5.320e-12,1.685e+4
203.174,3.280e+3,,1.844e-12,5.348e-12,3.280e+3
203.179,5.658e+2,,1.847e-12,5.377e-12,5.658e+2
203.184,8.644e+1,,1.849e-12,5.405e-12,8.644e+1
203.189,1.170e+1,,1.852e-12,5.433e-12,1.170e+1
203.194,1.403e+0,,1.855e-12,5.462e-12,1.403e+0
203.199,1.490e-1,,1.858e-12,5.490e-12,1.490e-1
203.204,1.402e-2,,1.860e-12,5.519e-12,1.402e-2
203.209,1.168e-3,,1.863e-12,5.547e-12,1.168e-3
203.214,8.624e-5,,1.866e-12,5.575e-12,8.624e-5
203.219,5.640e-6,,1.869e-12,5.604e-12,5.640e-6
203.224,3.268e-7,,1.871e-12,5.632e-12,3.268e-7
203.229,1.677e-8,,1.874e-12,5.660e-12,1.677e-8
203.234,7.625e-10,,1.877e-12,5.689e-12,7.625e-10
203.239,3.071e-11,,1.880e-12,5.717e-12,3.071e-11
203.244,1.096e-12,,1.882e-12,5.745e-12,1.096e-12
203.443,3.371e-11,,1.992e-12,6.875e-12,3.371e-11
203.448,9.760e-10,,1.995e-12,6.903e-12,9.760e-10
203.453,2.505e-8,,1.998e-12,6.931e-12,2.505e-8
203.458,5.698e-7,,2.001e-12,6.960e-12,5.698e-7
203.463,1.149e-5,,2.004e-12,6.988e-12,1.149e-5
203.468,2.053e-4,,2.006e-12,7.016e-12,2.053e-4
203.473,3.252e-3,,2.009e-12,7.045e-12,3.252e-3
203.478,4.566e-2,,2.012e-12,7.073e-12,4.566e-2
203.483,5.682e-1,,2.015e-12,7.101e-12,5.682e-1
203.488,6.268e+0,,2.017e-12,7.130e-12,6.268e+0
203.493,6.128e+1,,2.020e-12,7.158e-12,6.128e+1
203.498,5.311e+2,,2.023e-12,7.187e-12,5.311e+2
203.503,4.079e+3,,2.026e-12,7.215e-12,4.079e+3
203.508,2.777e+4,,2.028e-12,7.243e-12,2.777e+4
203.513,1.676e+5,,2.031e-12,7.272e-12,1.676e+5
203.518,8.963e+5,,2.034e-12,7.300e-12,8.963e+5
203.523,4.249e+6,,2.037e-12,7.328e-12,4.249e+6
203.528,1.786e+7,,2.039e-12,7.357e-12,1.786e+7
203.533,6.650e+7,,2.042e-12,7.385e-12,6.650e+7
203.538,2.195e+8,,2.045e-12,7.414e-12,2.195e+8
203.543,6.424e+8,,2.048e-12,7.442e-12,6.424e+8
203.548,1.666e+9,,2.051e-12,7.470e-12,1.666e+9
203.553,3.830e+9,,2.053e-12,7.499e-12,3.830e+9
203.558,7.804e+9,,2.056e-12,7.527e-12,7.804e+9
203.563,1.409e+10,,2.059e-12,7.555e-12,1.409e+10
203.568,2.256e+10,,2.062e-12,7.584e-12,2.256e+10
203.573,3.201e+10,,2.064e-12,7.612e-12,3.201e+10
203.578,4.026e+10,,2.067e-12,7.640e-12,4.026e+10
203.583,4.487e+10,,2.070e-12,7.669e-12,4.487e+10
203.588,4.433e+10,,2.073e-12,7.697e-12,4.433e+10
203.593,3.883e+10,,5.973e-11,7.726e-12,3.883e+10
203.598,3.014e+10,,1.526e-9,7.754e-12,3.014e+10
203.603,2.073e+10,,3.455e-8,7.782e-12,2.073e+10
203.608,1.264e+10,,6.937e-7,7.811e-12,1.264e+10
203.613,6.834e+9,,1.235e-5,7.839e-12,6.834e+9
203.618,3.274e+9,,1.948e-4,7.867e-12,3.274e+9
203.623,1.390e+9,,2.725e-3,7.896e-12,1.390e+9
203.628,5.233e+8,,3.379e-2,7.924e-12,5.233e+8
203.633,1.746e+8,,3.715e-1,7.953e-12,1.746e+8
203.638,5.176e+7,,3.620e+0,7.981e-12,5.176e+7
203.643,1.414e+7,,3.127e+1,8.009e-12,1.414e+7
203.648,5.689e+6,,2.395e+2,8.038e-12,5.689e+6
203.653,1.062e+7,,1.626e+3,8.066e-12,1.062e+7
203.658,3.634e+7,,9.788e+3,8.094e-12,3.633e+7
203.663,1.206e+8,,5.223e+4,8.123e-12,1.205e+8
203.668,3.641e+8,,2.471e+5,8.151e-12,3.639e+8
203.673,9.895e+8,,1.036e+6,8.179e-12,9.885e+8
203.678,2.407e+9,,3.851e+6,8.208e-12,2.403e+9
203.683,5.224e+9,,1.269e+7,8.236e-12,5.211e+9
203.688,1.009e+10,,3.708e+7,8.265e-12,1.005e+10
203.693,1.732e+10,,9.605e+7,8.293e-12,1.723e+10
203.698,2.643e+10,,2.206e+8,8.321e-12,2.621e+10
203.703,3.583e+10,,4.491e+8,8.350e-12,3.538e+10
203.708,4.317e+10,,8.107e+8,8.378e-12,4.236e+10
203.713,4.626e+10,,1.299e+9,8.406e-12,4.497e+10
203.718,4.417e+10,,1.847e+9,8.435e-12,4.233e+10
203.723,3.766e+10,,2.337e+9,8.463e-12,3.532e+10
203.728,2.878e+10,,2.643e+9,8.492e-12,2.613e+10
203.733,1.984e+10,,2.701e+9,8.520e-12,1.714e+10
203.738,1.251e+10,,2.548e+9,8.548e-12,9.966e+9
203.743,7.444e+9,,2.307e+9,8.577e-12,5.137e+9
203.748,4.461e+9,,2.114e+9,8.605e-12,2.348e+9
203.753,2.986e+9,,2.035e+9,8.633e-12,9.510e+8
203.758,2.379e+9,,2.038e+9,8.662e-12,3.415e+8
203.763,2.130e+9,,2.021e+9,8.690e-12,1.087e+8
203.768,1.922e+9,,1.891e+9,8.719e-12,3.068e+7
203.773,1.624e+9,,1.617e+9,8.747e-12,7.676e+6
203.778,1.244e+9,,1.242e+9,8.775e-12,1.702e+6
203.783,8.514e+8,,8.511e+8,8.804e-12,3.347e+5
203.788,5.185e+8,,5.184e+8,8.832e-12,5.833e+4
203.793,2.803e+8,,2.803e+8,8.860e-12,9.013e+3
203.798,1.344e+8,,1.344e+8,8.889e-12,1.234e+3
203.803,5.715e+7,,5.714e+7,8.917e-12,1.499e+2
203.808,2.154e+7,,2.154e+7,8.945e-12,1.613e+1
203.813,7.201e+6,,7.201e+6,8.974e-12,1.539e+0
203.818,2.134e+6,,2.134e+6,9.002e-12,1.302e-1
203.823,5.606e+5,,5.606e+5,9.031e-12,9.765e-3
203.828,1.306e+5,,1.306e+5,9.059e-12,6.491e-4
203.833,2.696e+4,,2.696e+4,9.087e-12,3.825e-5
203.838,4.935e+3,,4.935e+3,9.116e-12,1.998e-6
203.843,8.008e+2,,8.008e+2,9.144e-12,9.255e-8
203.848,1.152e+2,,1.152e+2,9.172e-12,3.800e-9
203.853,1.470e+1,,1.470e+1,9.201e-12,1.383e-10
203.858,1.662e+0,,1.662e+0,9.229e-12,1.369e-10
203.863,1.666e-1,,1.666e-1,9.258e-12,1.354e-10
203.868,1.481e-2,,1.481e-2,9.286e-12,1.340e-10
203.873,1.167e-3,,1.167e-3,9.314e-12,1.326e-10
203.878,8.399e-5,,8.399e-5,9.343e-12,1.312e-10
203.883,4.609e-5,,4.609e-5,9.371e-12,1.298e-10
203.888,5.985e-4,,5.985e-4,9.399e-12,1.283e-10
203.893,7.732e-3,,7.732e-3,9.428e-12,1.269e-10
203.898,8.862e-2,,8.862e-2,9.456e-12,1.255e-10
203.903,9.008e-1,,9.008e-1,9.484e-12,1.241e-10
203.908,8.120e+0,,8.120e+0,9.513e-12,1.227e-10
203.913,6.490e+1,,6.490e+1,9.541e-12,1.212e-10
203.918,4.600e+2,,4.600e+2,9.570e-12,1.198e-10
203.923,2.892e+3,,2.892e+3,9.598e-12,1.184e-10
203.928,1.612e+4,,1.612e+4,9.626e-12,1.170e-10
203.933,7.967e+4,,7.967e+4,9.655e-12,1.156e-10
203.938,3.492e+5,,3.492e+5,9.683e-12,1.141e-10
203.943,1.358e+6,,1.358e+6,9.711e-12,1.127e-10
203.948,4.680e+6,,4.680e+6,9.740e-12,1.113e-10
203.953,1.431e+7,,1.431e+7,9.768e-12,1.099e-10
203.958,3.878e+7,,3.878e+7,9.797e-12,1.085e-10
203.963,9.322e+7,,9.322e+7,9.825e-12,1.070e-10
203.968,1.987e+8,,1.987e+8,9.853e-12,1.056e-10
203.973,3.757e+8,,3.757e+8,9.882e-12,1.042e-10
203.978,6.298e+8,,6.298e+8,9.910e-12,1.028e-10
